Elapsed Time (s),Position (mm),Force (N)
-0.037,64.9501,-0.000744
0.001,64.9501,-0.000744
0.023,64.9501,-0.000744
0.039,64.9501,-0.000744
0.055,64.9501,-0.000744
0.071,64.9501,-0.000744
0.088,64.9501,-0.000744
0.118,64.9501,-0.000772
0.134,64.9501,-0.000772
0.152,64.9501,-0.000772
0.180,64.9501,-0.000772
0.198,64.9501,-0.000772
0.214,64.9501,-0.000772
0.230,64.9501,-0.000772
0.246,64.9501,-0.000772
0.263,64.9501,-0.000772
0.282,64.9501,-0.000772
0.305,64.9501,-0.000772
0.326,64.9501,-0.000772
0.342,64.9501,-0.000772
0.358,64.9501,-0.000772
0.374,64.9501,-0.000762
0.391,64.9501,-0.000762
0.407,64.9501,-0.000762
0.424,64.9501,-0.000762
0.445,64.9501,-0.000762
0.461,64.9501,-0.000762
0.492,64.9501,-0.000762
0.523,64.9501,-0.000762
0.555,64.9501,-0.000762
0.585,64.9501,-0.000762
0.616,64.9501,-0.000762
0.650,64.9501,-0.000762
0.677,64.9501,-0.000762
0.694,64.9501,-0.000762
0.711,64.9501,-0.000762
0.726,64.9501,-0.000762
0.742,64.9501,-0.000762
0.759,64.9501,-0.000762
0.785,64.9501,-0.000762
0.806,64.9501,-0.000762
0.822,64.9501,-0.000762
0.838,64.9501,-0.000762
0.854,64.9501,-0.000791
0.870,64.9501,-0.000791
0.890,64.9501,-0.000791
0.907,64.9501,-0.000791
0.938,64.9501,-0.000791
0.969,64.9501,-0.000791
1.000,64.9501,-0.000791
1.015,64.9501,-0.000791
1.046,64.9501,-0.000791
1.069,64.9501,-0.000791
1.092,64.9501,-0.000791
1.110,64.9501,-0.000715
1.127,64.9501,-0.000715
1.153,64.9501,-0.000715
1.174,64.9501,-0.000715
1.190,64.9501,-0.000715
1.206,64.9501,-0.000715
1.222,64.9501,-0.000715
1.238,64.9501,-0.000715
1.255,64.9501,-0.000715
1.278,64.9501,-0.000715
1.309,64.9501,-0.000715
1.339,64.9501,-0.000715
1.369,64.9501,-0.000687
1.400,64.9501,-0.000687
1.431,64.9501,-0.000687
1.455,64.9501,-0.000687
1.477,64.9501,-0.000687
1.497,64.9501,-0.000687
1.523,64.9501,-0.000687
1.542,64.9501,-0.000687
1.558,64.9501,-0.000687
1.579,64.9501,-0.000687
1.595,64.9501,-0.000687
1.611,64.9501,-0.000762
1.627,64.9501,-0.000762
1.643,64.9501,-0.000762
1.658,64.9501,-0.000762
1.675,64.9501,-0.000762
1.691,64.9501,-0.000762
1.707,64.9501,-0.000762
1.723,64.9501,-0.000762
1.738,64.9501,-0.000762
1.755,64.9501,-0.000762
1.773,64.9501,-0.000762
1.802,64.9501,-0.000762
1.819,64.9501,-0.000762
1.835,64.9501,-0.000762
1.850,64.9501,-0.000791
1.867,64.9501,-0.000791
1.882,64.9501,-0.000791
1.899,64.9501,-0.000791
1.915,64.9501,-0.000791
1.931,64.9501,-0.000791
1.947,64.9501,-0.000791
1.963,64.9501,-0.000791
1.979,64.9501,-0.000791
1.995,64.9501,-0.000791
2.011,64.9501,-0.000791
2.027,64.9501,-0.000791
2.042,64.9501,-0.000791
2.059,64.9501,-0.000791
2.075,64.9501,-0.000791
2.091,64.9501,-0.000791
2.106,64.9501,-0.000791
2.131,64.9501,-0.000753
2.159,64.9501,-0.000753
2.177,64.9501,-0.000753
2.194,64.9501,-0.000753
2.209,64.9501,-0.000753
2.226,64.9501,-0.000753
2.251,64.9501,-0.000753
2.281,64.9501,-0.000753
2.312,64.9501,-0.000753
2.343,64.9501,-0.000781
2.373,64.9501,-0.000781
2.389,64.9501,-0.000781
2.419,64.9501,-0.000781
2.435,64.9501,-0.000781
2.466,64.9501,-0.000781
2.482,64.9501,-0.000781
2.502,64.9501,-0.000781
2.528,64.9501,-0.000781
2.545,64.9501,-0.000781
2.562,64.9501,-0.000781
2.578,64.9501,-0.000781
2.594,64.9501,-0.000762
2.609,64.9501,-0.000762
2.626,64.9501,-0.000762
2.652,64.9501,-0.000762
2.673,64.9501,-0.000762
2.689,64.9501,-0.000762
2.705,64.9501,-0.000762
2.722,64.9501,-0.000762
2.738,64.9501,-0.000762
2.754,64.9501,-0.000762
2.769,64.9501,-0.000762
2.786,64.9501,-0.000762
2.802,64.9501,-0.000762
2.817,64.9501,-0.000762
2.833,64.9501,-0.000762
2.850,64.9501,-0.000753
2.865,64.9501,-0.000753
2.881,64.9501,-0.000753
2.898,64.9501,-0.000753
2.913,64.9501,-0.000753
2.929,64.9501,-0.000753
2.945,64.9501,-0.000753
2.961,64.9501,-0.000753
2.977,64.9501,-0.000753
2.994,64.9501,-0.000753
3.010,64.9501,-0.000753
3.027,64.9501,-0.000753
3.042,64.9501,-0.000753
3.057,64.9501,-0.000753
3.074,64.9501,-0.000753
3.090,64.9501,-0.000753
3.118,64.9501,-0.000744
3.137,64.9501,-0.000744
3.154,64.9501,-0.000744
3.170,64.9501,-0.000744
3.186,64.9501,-0.000744
3.210,64.9501,-0.000744
3.227,64.9501,-0.000744
3.242,64.9501,-0.000744
3.258,64.9501,-0.000744
3.275,64.9501,-0.000744
3.291,64.9501,-0.000744
3.319,64.9501,-0.000744
3.344,64.9501,-0.000744
3.366,64.9501,-0.000744
3.386,64.9501,-0.000753
3.403,64.9501,-0.000753
3.418,64.9501,-0.000753
3.434,64.9501,-0.000753
3.450,64.9501,-0.000753
3.466,64.9501,-0.000753
3.482,64.9501,-0.000753
3.498,64.9501,-0.000753
3.514,64.9501,-0.000753
3.530,64.9501,-0.000753
3.546,64.9501,-0.000753
3.562,64.9501,-0.000753
3.578,64.9501,-0.000753
3.594,64.9501,-0.000753
3.610,64.9501,-0.000838
3.626,64.9501,-0.000838
3.642,64.9501,-0.000838
3.659,64.9501,-0.000838
3.690,64.9501,-0.000838
3.706,64.9501,-0.000838
3.722,64.9501,-0.000838
3.738,64.9501,-0.000838
3.765,64.9501,-0.000838
3.781,64.9501,-0.000838
3.797,64.9501,-0.000838
3.814,64.9501,-0.000838
3.831,64.9501,-0.000838
3.861,64.9501,-0.000913
3.877,64.9501,-0.000913
3.894,64.9501,-0.000913
3.923,64.9501,-0.000913
3.941,64.9501,-0.000913
3.958,64.9501,-0.000913
3.985,64.9501,-0.000913
4.005,64.9501,-0.000913
4.021,64.9500,-0.000913
4.037,64.9496,-0.000913
4.053,64.9490,-0.000913
4.069,64.9482,-0.000913
4.086,64.9472,-0.000913
4.101,64.9461,-0.000913
4.117,64.9449,-0.000979
4.133,64.9434,-0.000979
4.149,64.9416,-0.000979
4.165,64.9398,-0.000979
4.180,64.9377,-0.000979
4.197,64.9353,-0.000979
4.213,64.9330,-0.000979
4.230,64.9300,-0.000979
4.245,64.9274,-0.000979
4.261,64.9242,-0.000979
4.278,64.9208,-0.000979
4.293,64.9176,-0.000979
4.323,64.9105,-0.000979
4.340,64.9063,-0.000979
4.368,64.8989,-0.000320
4.386,64.8937,-0.000320
4.402,64.8889,-0.000320
4.418,64.8840,-0.000320
4.434,64.8789,-0.000320
4.451,64.8731,-0.000320
4.466,64.8680,-0.000320
4.482,64.8620,-0.000320
4.498,64.8563,-0.000320
4.514,64.8500,-0.000320
4.530,64.8437,-0.000320
4.546,64.8373,-0.000320
4.562,64.8305,-0.000320
4.578,64.8235,-0.000320
4.594,64.8166,0.002589
4.610,64.8093,0.002589
4.629,64.8000,0.002589
4.660,64.7849,0.002589
4.677,64.7766,0.002589
4.707,64.7606,0.002589
4.724,64.7519,0.002589
4.739,64.7432,0.002589
4.754,64.7347,0.002589
4.770,64.7255,0.002589
4.786,64.7163,0.002589
4.802,64.7063,0.002589
4.818,64.6970,0.002589
4.834,64.6869,0.002589
4.861,64.6690,0.008218
4.878,64.6584,0.008218
4.909,64.6373,0.008218
4.926,64.6251,0.008218
4.956,64.6039,0.008218
4.973,64.5918,0.008218
4.991,64.5775,0.008218
5.018,64.5580,0.008218
5.037,64.5429,0.008218
5.053,64.5304,0.008218
5.068,64.5179,0.008218
5.085,64.5042,0.008218
5.101,64.4912,0.015664
5.117,64.4778,0.015664
5.133,64.4642,0.015664
5.148,64.4508,0.015664
5.165,64.4361,0.015664
5.180,64.4226,0.015664
5.196,64.4082,0.015664
5.212,64.3935,0.015664
5.229,64.3773,0.015664
5.250,64.3581,0.015664
5.280,64.3291,0.015664
5.311,64.2990,0.015664
5.342,64.2683,0.015664
5.358,64.2515,0.015664
5.374,64.2351,0.015664
5.403,64.2053,0.013847
5.419,64.1873,0.013847
5.435,64.1706,0.013847
5.451,64.1535,0.013847
5.466,64.1359,0.013847
5.483,64.1178,0.013847
5.498,64.1003,0.013847
5.515,64.0807,0.013847
5.533,64.0590,0.013847
5.559,64.0303,0.013847
5.579,64.0066,0.013847
5.594,63.9874,0.013847
5.610,63.9684,0.013847
5.626,63.9490,0.003784
5.642,63.9291,0.003784
5.660,63.9072,0.003784
5.682,63.8791,0.003784
5.712,63.8401,0.003784
5.729,63.8185,0.003784
5.759,63.7793,0.003784
5.775,63.7578,0.003784
5.790,63.7358,0.003784
5.806,63.7148,0.003784
5.822,63.6942,0.003784
5.838,63.6718,0.003784
5.868,63.6285,-0.000424
5.899,63.5852,-0.000424
5.915,63.5623,-0.000424
5.931,63.5389,-0.000424
5.958,63.4975,-0.000424
5.980,63.4650,-0.000424
6.006,63.4265,-0.000424
6.023,63.4008,-0.000424
6.039,63.3772,-0.000424
6.054,63.3529,-0.000424
6.070,63.3279,-0.000424
6.087,63.3019,-0.000424
6.103,63.2769,-0.000424
6.118,63.2521,-0.000471
6.134,63.2260,-0.000471
6.151,63.1985,-0.000471
6.167,63.1727,-0.000471
6.182,63.1476,-0.000471
6.198,63.1205,-0.000471
6.215,63.0937,-0.000471
6.231,63.0663,-0.000471
6.246,63.0407,-0.000471
6.263,63.0117,-0.000471
6.278,62.9854,-0.000471
6.294,62.9576,-0.000471
6.310,62.9295,-0.000471
6.326,62.9020,-0.000471
6.343,62.8733,-0.000471
6.358,62.8455,-0.000489
6.374,62.8169,-0.000489
6.391,62.7856,-0.000489
6.423,62.7276,-0.000489
6.438,62.6999,-0.000489
6.454,62.6684,-0.000489
6.470,62.6410,-0.000489
6.486,62.6110,-0.000489
6.514,62.5567,-0.000489
6.531,62.5258,-0.000489
6.546,62.4962,-0.000489
6.563,62.4633,-0.000489
6.578,62.4338,-0.000489
6.595,62.4008,-0.000489
6.623,62.3456,-0.000518
6.642,62.3080,-0.000518
6.658,62.2755,-0.000518
6.674,62.2439,-0.000518
6.690,62.2114,-0.000518
6.706,62.1770,-0.000518
6.723,62.1436,-0.000518
6.738,62.1113,-0.000518
6.754,62.0796,-0.000518
6.770,62.0440,-0.000518
6.786,62.0113,-0.000518
6.802,61.9771,-0.000518
6.818,61.9445,-0.000518
6.834,61.9101,-0.000518
6.850,61.8760,-0.000518
6.866,61.8427,-0.000584
6.882,61.8082,-0.000584
6.898,61.7738,-0.000584
6.914,61.7412,-0.000584
6.930,61.7081,-0.000584
6.945,61.6762,-0.000584
6.962,61.6435,-0.000584
6.978,61.6100,-0.000584
6.994,61.5789,-0.000584
7.014,61.5383,-0.000584
7.041,61.4839,-0.000584
7.072,61.4230,-0.000584
7.088,61.3917,-0.000584
7.104,61.3608,-0.000612
7.120,61.3310,-0.000612
7.136,61.2992,-0.000612
7.152,61.2692,-0.000612
7.168,61.2399,-0.000612
7.184,61.2094,-0.000612
7.200,61.1777,-0.000612
7.216,61.1499,-0.000612
7.232,61.1210,-0.000612
7.248,61.0918,-0.000612
7.264,61.0615,-0.000612
7.281,61.0314,-0.000612
7.296,61.0045,-0.000612
7.312,60.9762,-0.000612
7.328,60.9472,-0.000612
7.344,60.9204,-0.000612
7.360,60.8927,-0.000640
7.376,60.8641,-0.000640
7.392,60.8368,-0.000640
7.408,60.8102,-0.000640
7.424,60.7829,-0.000640
7.440,60.7562,-0.000640
7.456,60.7289,-0.000640
7.472,60.7029,-0.000640
7.488,60.6762,-0.000640
7.503,60.6503,-0.000640
7.520,60.6241,-0.000640
7.536,60.5976,-0.000640
7.552,60.5719,-0.000640
7.569,60.5454,-0.000640
7.599,60.4980,-0.000640
7.628,60.4535,-0.000640
7.644,60.4291,-0.000640
7.660,60.4052,-0.000640
7.676,60.3816,-0.000640
7.691,60.3567,-0.000640
7.708,60.3339,-0.000640
7.723,60.3104,-0.000640
7.740,60.2873,-0.000640
7.756,60.2632,-0.000640
7.772,60.2394,-0.000640
7.801,60.2001,-0.000640
7.821,60.1713,-0.000640
7.848,60.1350,-0.000565
7.868,60.1075,-0.000565
7.884,60.0858,-0.000565
7.901,60.0637,-0.000565
7.925,60.0316,-0.000565
7.941,60.0107,-0.000565
7.958,59.9893,-0.000565
7.988,59.9511,-0.000565
8.004,59.9304,-0.000565
8.034,59.8925,-0.000565
8.050,59.8737,-0.000565
8.081,59.8371,-0.000565
8.112,59.8000,-0.000518
8.144,59.7634,-0.000518
8.174,59.7292,-0.000518
8.205,59.6952,-0.000518
8.237,59.6602,-0.000518
8.253,59.6434,-0.000518
8.268,59.6271,-0.000518
8.283,59.6107,-0.000518
8.301,59.5930,-0.000518
8.317,59.5765,-0.000518
8.344,59.5492,-0.000508
8.364,59.5290,-0.000508
8.390,59.5045,-0.000508
8.411,59.4847,-0.000508
8.428,59.4695,-0.000508
8.444,59.4545,-0.000508
8.460,59.4398,-0.000508
8.476,59.4250,-0.000508
8.492,59.4114,-0.000508
8.508,59.3973,-0.000508
8.524,59.3835,-0.000508
8.539,59.3705,-0.000508
8.555,59.3565,-0.000508
8.571,59.3439,-0.000508
8.587,59.3310,-0.000508
8.603,59.3178,-0.000480
8.620,59.3047,-0.000480
8.635,59.2930,-0.000480
8.665,59.2706,-0.000480
8.683,59.2569,-0.000480
8.715,59.2341,-0.000480
8.731,59.2228,-0.000480
8.761,59.2022,-0.000480
8.792,59.1815,-0.000480
8.807,59.1713,-0.000480
8.823,59.1613,-0.000480
8.839,59.1512,-0.000499
8.856,59.1414,-0.000499
8.872,59.1319,-0.000499
8.887,59.1227,-0.000499
8.903,59.1135,-0.000499
8.920,59.1042,-0.000499
8.936,59.0951,-0.000499
8.959,59.0827,-0.000499
8.991,59.0664,-0.000499
9.022,59.0513,-0.000499
9.038,59.0438,-0.000499
9.054,59.0363,-0.000499
9.085,59.0225,-0.000499
9.116,59.0092,-0.000499
9.148,58.9971,-0.000489
9.178,58.9855,-0.000489
9.209,58.9750,-0.000489
9.225,58.9699,-0.000489
9.241,58.9648,-0.000489
9.272,58.9553,-0.000489
9.303,58.9466,-0.000489
9.319,58.9425,-0.000489
9.335,58.9385,-0.000489
9.352,58.9347,-0.000489
9.367,58.9312,-0.000442
9.384,58.9276,-0.000442
9.400,58.9245,-0.000442
9.416,58.9217,-0.000442
9.431,58.9188,-0.000442
9.447,58.9163,-0.000442
9.463,58.9139,-0.000442
9.479,58.9118,-0.000442
9.495,58.9096,-0.000442
9.511,58.9078,-0.000442
9.527,58.9062,-0.000442
9.543,58.9048,-0.000442
9.559,58.9036,-0.000442
9.575,58.9025,-0.000442
9.591,58.9016,-0.000442
9.607,58.9010,-0.000442
9.623,58.9005,-0.000442
9.639,58.9002,-0.000442
9.655,58.9001,-0.000442
9.671,58.9001,-0.000442
9.687,58.9001,-0.000442
9.703,58.9001,-0.000442
9.719,58.9001,-0.000442
9.735,58.9001,-0.000442
9.752,58.9001,-0.000442
9.768,58.9001,-0.000442
9.796,58.9001,-0.000442
9.815,58.9001,-0.000442
9.831,58.9001,-0.000442
9.847,58.9005,-0.000414
9.863,58.9008,-0.000414
9.879,58.9015,-0.000414
9.895,58.9023,-0.000414
9.911,58.9033,-0.000414
9.927,58.9046,-0.000414
9.944,58.9060,-0.000414
9.959,58.9075,-0.000414
9.975,58.9093,-0.000414
9.991,58.9114,-0.000414
10.007,58.9135,-0.000414
10.023,58.9158,-0.000414
10.039,58.9186,-0.000414
10.055,58.9212,-0.000414
10.071,58.9242,-0.000414
10.087,58.9273,-0.000471
10.103,58.9306,-0.000471
10.119,58.9343,-0.000471
10.135,58.9382,-0.000471
10.152,58.9423,-0.000471
10.167,58.9461,-0.000471
10.184,58.9504,-0.000471
10.199,58.9548,-0.000471
10.215,58.9594,-0.000471
10.231,58.9643,-0.000471
10.248,58.9699,-0.000471
10.275,58.9787,-0.000471
10.295,58.9859,-0.000471
10.311,58.9920,-0.000471
10.327,58.9982,-0.000471
10.343,59.0040,-0.000537
10.359,59.0104,-0.000537
10.375,59.0170,-0.000537
10.391,59.0239,-0.000537
10.407,59.0308,-0.000537
10.423,59.0383,-0.000537
10.439,59.0458,-0.000537
10.454,59.0533,-0.000537
10.471,59.0611,-0.000537
10.487,59.0691,-0.000537
10.503,59.0772,-0.000537
10.519,59.0856,-0.000537
10.535,59.0943,-0.000537
10.551,59.1030,-0.000537
10.567,59.1119,-0.000537
10.583,59.1215,-0.000537
10.598,59.1302,-0.000471
10.623,59.1453,-0.000471
10.647,59.1597,-0.000471
10.662,59.1696,-0.000471
10.679,59.1800,-0.000471
10.695,59.1911,-0.000471
10.723,59.2102,-0.000471
10.748,59.2269,-0.000471
10.773,59.2448,-0.000471
10.789,59.2568,-0.000471
10.815,59.2756,-0.000471
10.836,59.2920,-0.000471
10.852,59.3042,-0.000489
10.867,59.3164,-0.000489
10.884,59.3295,-0.000489
10.899,59.3422,-0.000489
10.915,59.3553,-0.000489
10.932,59.3690,-0.000489
10.948,59.3829,-0.000489
10.963,59.3962,-0.000489
10.980,59.4102,-0.000489
10.995,59.4242,-0.000489
11.011,59.4389,-0.000489
11.027,59.4530,-0.000489
11.043,59.4677,-0.000489
11.060,59.4830,-0.000489
11.076,59.4988,-0.000489
11.092,59.5139,-0.000518
11.108,59.5289,-0.000518
11.125,59.5458,-0.000518
11.140,59.5606,-0.000518
11.155,59.5764,-0.000518
11.171,59.5925,-0.000518
11.188,59.6098,-0.000518
11.204,59.6261,-0.000518
11.221,59.6441,-0.000518
11.245,59.6705,-0.000518
11.276,59.7050,-0.000518
11.292,59.7216,-0.000518
11.323,59.7571,-0.000518
11.353,59.7915,-0.000499
11.384,59.8279,-0.000499
11.415,59.8655,-0.000499
11.431,59.8837,-0.000499
11.462,59.9227,-0.000499
11.477,59.9414,-0.000499
11.493,59.9607,-0.000499
11.508,59.9811,-0.000499
11.524,60.0004,-0.000499
11.539,60.0209,-0.000499
11.556,60.0430,-0.000499
11.574,60.0665,-0.000499
11.592,60.0912,-0.000499
11.617,60.1253,-0.000518
11.636,60.1506,-0.000518
11.652,60.1725,-0.000518
11.667,60.1934,-0.000518
11.683,60.2160,-0.000518
11.699,60.2388,-0.000518
11.716,60.2624,-0.000518
11.731,60.2841,-0.000518
11.747,60.3089,-0.000518
11.767,60.3365,-0.000518
11.785,60.3637,-0.000518
11.801,60.3873,-0.000518
11.831,60.4339,-0.000518
11.853,60.4673,-0.000518
11.871,60.4940,-0.000518
11.893,60.5284,-0.000518
11.924,60.5783,-0.000593
11.954,60.6263,-0.000593
11.986,60.6770,-0.000593
12.016,60.7276,-0.000593
12.048,60.7805,-0.000593
12.064,60.8086,-0.000593
12.094,60.8599,-0.000593
12.126,60.9141,-0.000650
12.141,60.9414,-0.000650
12.160,60.9744,-0.000650
12.188,61.0256,-0.000650
12.204,61.0539,-0.000650
12.220,61.0835,-0.000650
12.236,61.1129,-0.000650
12.252,61.1414,-0.000650
12.268,61.1702,-0.000650
12.285,61.2023,-0.000650
12.300,61.2302,-0.000650
12.316,61.2614,-0.000650
12.332,61.2906,-0.000650
12.350,61.3250,-0.000650
12.374,61.3701,-0.000650
12.389,61.4007,-0.000650
12.404,61.4303,-0.000650
12.435,61.4929,-0.000725
12.466,61.5533,-0.000725
12.497,61.6155,-0.000725
12.528,61.6786,-0.000725
12.544,61.7128,-0.000725
12.574,61.7740,-0.000725
12.605,61.8390,-0.000725
12.621,61.8716,-0.000800
12.636,61.9037,-0.000800
12.654,61.9428,-0.000800
12.681,61.9998,-0.000800
12.700,62.0385,-0.000800
12.718,62.0756,-0.000800
12.743,62.1268,-0.000800
12.758,62.1586,-0.000800
12.789,62.2227,-0.000800
12.804,62.2521,-0.000800
12.836,62.3159,-0.000800
12.852,62.3453,-0.000800
12.882,62.4059,-0.000715
12.913,62.4671,-0.000715
12.943,62.5228,-0.000715
12.964,62.5616,-0.000715
12.980,62.5923,-0.000715
12.996,62.6215,-0.000715
13.012,62.6508,-0.000715
13.029,62.6824,-0.000715
13.044,62.7111,-0.000715
13.060,62.7391,-0.000715
13.076,62.7674,-0.000715
13.092,62.7965,-0.000715
13.108,62.8244,-0.000650
13.124,62.8526,-0.000650
13.140,62.8817,-0.000650
13.156,62.9089,-0.000650
13.172,62.9369,-0.000650
13.188,62.9642,-0.000650
13.204,62.9910,-0.000650
13.220,63.0193,-0.000650
13.236,63.0451,-0.000650
13.252,63.0722,-0.000650
13.268,63.0997,-0.000650
13.284,63.1256,-0.000650
13.300,63.1509,-0.000650
13.316,63.1773,-0.000650
13.332,63.2032,-0.000650
13.348,63.2280,-0.000650
13.364,63.2539,-0.000659
13.380,63.2792,-0.000659
13.396,63.3057,-0.000659
13.412,63.3282,-0.000659
13.428,63.3533,-0.000659
13.444,63.3778,-0.000659
13.460,63.4015,-0.000659
13.476,63.4256,-0.000659
13.491,63.4489,-0.000659
13.516,63.4854,-0.000659
13.531,63.5072,-0.000659
13.547,63.5300,-0.000659
13.562,63.5526,-0.000659
13.579,63.5770,-0.000659
13.594,63.5977,-0.000659
13.610,63.6199,-0.000537
13.627,63.6423,-0.000537
13.642,63.6646,-0.000537
13.659,63.6864,-0.000537
13.674,63.7076,-0.000537
13.691,63.7297,-0.000537
13.706,63.7504,-0.000537
13.723,63.7716,-0.000537
13.739,63.7934,-0.000537
13.755,63.8129,-0.000537
13.771,63.8349,-0.000537
13.787,63.8543,-0.000537
13.802,63.8734,-0.000537
13.819,63.8938,-0.000537
13.834,63.9130,-0.000537
13.850,63.9325,-0.000537
13.866,63.9516,-0.000424
13.882,63.9708,-0.000424
13.899,63.9903,-0.000424
13.914,64.0082,-0.000424
13.931,64.0271,-0.000424
13.946,64.0451,-0.000424
13.962,64.0632,-0.000424
13.978,64.0810,-0.000424
13.995,64.0992,-0.000424
14.011,64.1166,-0.000424
14.028,64.1354,-0.000424
14.058,64.1675,-0.000424
14.075,64.1858,-0.000424
14.098,64.2089,-0.000424
14.120,64.2321,-0.000433
14.139,64.2501,-0.000433
14.155,64.2660,-0.000433
14.172,64.2821,-0.000433
14.198,64.3081,-0.000433
14.219,64.3271,-0.000433
14.234,64.3411,-0.000433
14.250,64.3558,-0.000433
14.267,64.3708,-0.000433
14.283,64.3854,-0.000433
14.298,64.3984,-0.000433
14.315,64.4133,-0.000433
14.336,64.4314,-0.000433
14.367,64.4566,-0.000471
14.398,64.4818,-0.000471
14.428,64.5055,-0.000471
14.458,64.5289,-0.000471
14.474,64.5403,-0.000471
14.491,64.5520,-0.000471
14.513,64.5685,-0.000471
14.535,64.5841,-0.000471
14.555,64.5974,-0.000471
14.571,64.6078,-0.000471
14.587,64.6184,-0.000471
14.603,64.6290,-0.000471
14.627,64.6444,-0.000442
14.644,64.6545,-0.000442
14.660,64.6640,-0.000442
14.675,64.6731,-0.000442
14.692,64.6829,-0.000442
14.720,64.6987,-0.000442
14.739,64.7094,-0.000442
14.756,64.7180,-0.000442
14.771,64.7260,-0.000442
14.788,64.7344,-0.000442
14.804,64.7425,-0.000442
14.822,64.7511,-0.000442
14.843,64.7612,-0.000442
14.859,64.7680,-0.000442
14.875,64.7750,-0.000518
14.905,64.7879,-0.000518
14.936,64.8003,-0.000518
14.966,64.8117,-0.000518
14.997,64.8230,-0.000518
15.028,64.8329,-0.000518
15.044,64.8378,-0.000518
15.074,64.8469,-0.000518
15.092,64.8517,-0.000697
15.107,64.8558,-0.000697
15.124,64.8599,-0.000697
15.139,64.8636,-0.000697
15.163,64.8691,-0.000697
15.179,64.8726,-0.000697
15.195,64.8755,-0.000697
15.212,64.8788,-0.000697
15.228,64.8815,-0.000697
15.243,64.8840,-0.000697
15.259,64.8865,-0.000697
15.275,64.8886,-0.000697
15.294,64.8910,-0.000697
15.320,64.8938,-0.000697
15.339,64.8955,-0.000697
15.360,64.8971,-0.000697
15.382,64.8984,-0.000697
15.403,64.8992,-0.000800
15.419,64.8997,-0.000800
15.436,64.9000,-0.000800
15.452,64.9001,-0.000800
15.467,64.9001,-0.000800
15.483,64.9001,-0.000800
15.499,64.9001,-0.000800
15.515,64.9001,-0.000800
15.531,64.9001,-0.000800
15.547,64.9001,-0.000800
15.563,64.9001,-0.000800
15.579,64.9001,-0.000800
15.596,64.9001,-0.000800
15.611,64.9001,-0.000800
15.627,64.9001,-0.000781
15.643,64.9001,-0.000781
15.659,64.9001,-0.000781
15.675,64.9001,-0.000781
15.691,64.9001,-0.000781
15.723,64.9001,-0.000781
15.754,64.9001,-0.000781
15.770,64.9001,-0.000781
15.787,64.9001,-0.000781
15.802,64.9001,-0.000781
15.818,64.9001,-0.000781
15.835,64.9001,-0.000781
15.850,64.9001,-0.000781
15.866,64.9001,-0.000781
15.882,64.9001,-0.000734
15.898,64.9001,-0.000734
15.914,64.9001,-0.000734
15.930,64.9001,-0.000734
15.947,64.9001,-0.000734
15.962,64.9001,-0.000734
15.985,64.9001,-0.000734
16.002,64.9001,-0.000734
16.017,64.9001,-0.000734
16.049,64.9001,-0.000734
16.079,64.9001,-0.000734
16.110,64.9001,-0.000734
16.140,64.9001,-0.000772
16.170,64.9001,-0.000772
16.185,64.9001,-0.000772
16.202,64.9001,-0.000772
16.218,64.9001,-0.000772
16.234,64.9001,-0.000772
16.250,64.9001,-0.000772
16.278,64.9001,-0.000772
16.295,64.9001,-0.000772
16.310,64.9001,-0.000772
16.327,64.9001,-0.000772
16.348,64.9001,-0.000772
16.372,64.9001,-0.000772
16.390,64.9001,-0.000753
16.406,64.9001,-0.000753
16.422,64.9001,-0.000753
16.438,64.9001,-0.000753
16.454,64.9001,-0.000753
16.473,64.9001,-0.000753
16.495,64.9001,-0.000753
16.511,64.9001,-0.000753
16.542,64.9001,-0.000753
16.572,64.9001,-0.000753
16.602,64.9001,-0.000753
16.633,64.9001,-0.000725
16.650,64.9001,-0.000725
16.680,64.9001,-0.000725
16.710,64.9001,-0.000725
16.726,64.9001,-0.000725
16.741,64.9001,-0.000725
16.758,64.9001,-0.000725
16.774,64.9001,-0.000725
16.790,64.9001,-0.000725
16.805,64.9001,-0.000725
16.834,64.9001,-0.000725
16.851,64.9001,-0.000725
16.867,64.9001,-0.000762
16.882,64.9001,-0.000762
16.899,64.9001,-0.000762
16.915,64.9001,-0.000762
16.931,64.9001,-0.000762
16.946,64.9001,-0.000762
16.962,64.9001,-0.000762
16.978,64.9001,-0.000762
16.994,64.9001,-0.000762
17.011,64.9001,-0.000762
17.027,64.9001,-0.000762
17.043,64.9001,-0.000762
17.058,64.9001,-0.000762
17.074,64.9001,-0.000762
17.091,64.9001,-0.000762
17.107,64.9001,-0.000762
17.124,64.9001,-0.000762
17.146,64.9001,-0.000762
17.177,64.9001,-0.000725
17.209,64.9001,-0.000725
17.239,64.9001,-0.000725
17.254,64.9001,-0.000725
17.270,64.9001,-0.000725
17.301,64.9001,-0.000725
17.334,64.9001,-0.000725
17.363,64.9001,-0.000678
17.379,64.9001,-0.000678
17.394,64.9001,-0.000678
17.411,64.9001,-0.000678
17.426,64.9001,-0.000678
17.442,64.9001,-0.000678
17.461,64.9001,-0.000678
17.487,64.9001,-0.000678
17.506,64.9001,-0.000678
17.524,64.9001,-0.000678
17.548,64.9001,-0.000678
17.579,64.9001,-0.000678
17.609,64.9001,-0.000678
17.640,64.9001,-0.000687
17.671,64.9001,-0.000687
17.702,64.9001,-0.000687
17.719,64.9001,-0.000687
17.750,64.9001,-0.000687
17.766,64.9001,-0.000687
17.797,64.9001,-0.000687
17.827,64.9001,-0.000687
17.858,64.9001,-0.000687
17.888,64.9001,-0.000715
17.905,64.9001,-0.000715
17.921,64.9001,-0.000715
17.936,64.9001,-0.000715
17.953,64.9001,-0.000715
17.969,64.9001,-0.000715
17.984,64.9001,-0.000715
18.000,64.9001,-0.000715
18.017,64.9001,-0.000715
18.032,64.9001,-0.000715
18.048,64.9001,-0.000715
18.064,64.9001,-0.000715
18.081,64.9001,-0.000715
18.096,64.9001,-0.000715
18.112,64.9001,-0.000725
18.129,64.9001,-0.000725
18.144,64.9001,-0.000725
18.160,64.9001,-0.000725
18.176,64.9001,-0.000725
18.192,64.9001,-0.000725
18.209,64.9001,-0.000725
18.224,64.9001,-0.000725
18.240,64.9001,-0.000725
18.256,64.9001,-0.000725
18.273,64.9001,-0.000725
18.288,64.9001,-0.000725
18.304,64.9001,-0.000725
18.320,64.9001,-0.000725
18.336,64.9001,-0.000725
18.352,64.9001,-0.000697
18.368,64.9001,-0.000697
18.384,64.9001,-0.000697
18.400,64.9001,-0.000697
18.417,64.9001,-0.000697
18.447,64.9001,-0.000697
18.463,64.9001,-0.000697
18.479,64.9001,-0.000697
18.495,64.9001,-0.000697
18.512,64.9001,-0.000697
18.541,64.9001,-0.000697
18.559,64.9001,-0.000697
18.575,64.9001,-0.000697
18.591,64.9001,-0.000697
18.607,64.9001,-0.000734
18.623,64.9001,-0.000734
18.639,64.9001,-0.000734
18.656,64.9001,-0.000734
18.671,64.9001,-0.000734
18.687,64.9001,-0.000734
18.703,64.9001,-0.000734
18.719,64.9001,-0.000734
18.735,64.9001,-0.000734
18.751,64.9001,-0.000734
18.775,64.9001,-0.000734
18.804,64.9001,-0.000734
18.821,64.9001,-0.000734
18.851,64.9001,-0.000734
18.866,64.9001,-0.000697
18.897,64.9001,-0.000697
18.927,64.9001,-0.000697
18.944,64.9001,-0.000697
18.959,64.9001,-0.000697
18.975,64.9001,-0.000697
19.004,64.9001,-0.000697
19.020,64.9001,-0.000697
19.036,64.9001,-0.000697
19.052,64.9001,-0.000697
19.072,64.9001,-0.000697
19.099,64.9001,-0.000706
19.116,64.9001,-0.000706
19.132,64.9001,-0.000706
19.148,64.9001,-0.000706
19.164,64.9001,-0.000706
19.180,64.9001,-0.000706
19.201,64.9001,-0.000706
19.223,64.9001,-0.000706
19.244,64.9001,-0.000706
19.261,64.9001,-0.000706
19.285,64.9001,-0.000706
19.301,64.9001,-0.000706
19.316,64.9001,-0.000706
19.332,64.9001,-0.000706
19.362,64.9001,-0.000791
19.393,64.9001,-0.000791
19.409,64.9001,-0.000791
19.425,64.9001,-0.000791
19.456,64.9001,-0.000791
19.471,64.9001,-0.000791
19.487,64.9001,-0.000791
19.503,64.9001,-0.000791
19.527,64.9001,-0.000791
19.543,64.9001,-0.000791
19.559,64.9001,-0.000791
19.575,64.9001,-0.000791
19.590,64.9001,-0.000791
19.606,64.9001,-0.000932
19.623,64.9001,-0.000932
19.638,64.9001,-0.000932
19.655,64.9001,-0.000932
19.671,64.9001,-0.000932
19.686,64.9000,-0.000932
19.702,64.8997,-0.000932
19.719,64.8994,-0.000932
19.734,64.8987,-0.000932
19.750,64.8979,-0.000932
19.767,64.8969,-0.000932
19.783,64.8956,-0.000932
19.799,64.8941,-0.000932
19.815,64.8925,-0.000932
19.830,64.8908,-0.000932
19.846,64.8888,-0.001017
19.862,64.8867,-0.001017
19.880,64.8840,-0.001017
19.906,64.8796,-0.001017
19.927,64.8759,-0.001017
19.943,64.8727,-0.001017
19.959,64.8693,-0.001017
19.975,64.8657,-0.001017
19.991,64.8621,-0.001017
20.008,64.8577,-0.001017
20.029,64.8521,-0.001017
20.060,64.8438,-0.001017
20.091,64.8342,-0.001017
20.122,64.8241,0.000113
20.138,64.8185,0.000113
20.154,64.8128,0.000113
20.170,64.8068,0.000113
20.200,64.7953,0.000113
20.216,64.7890,0.000113
20.231,64.7825,0.000113
20.262,64.7693,0.000113
20.278,64.7619,0.000113
20.294,64.7545,0.000113
20.314,64.7449,0.000113
20.340,64.7320,0.003906
20.359,64.7227,0.003906
20.374,64.7146,0.003906
20.391,64.7058,0.003906
20.407,64.6968,0.003906
20.423,64.6875,0.003906
20.442,64.6762,0.003906
20.457,64.6683,0.003906
20.478,64.6553,0.003906
20.509,64.6356,0.003906
20.540,64.6160,0.003906
20.556,64.6057,0.003906
20.571,64.5949,0.003906
20.587,64.5845,0.003906
20.603,64.5737,0.003906
20.623,64.5592,0.010138
20.640,64.5471,0.010138
20.655,64.5357,0.010138
20.672,64.5229,0.010138
20.689,64.5096,0.010138
20.705,64.4974,0.010138
20.725,64.4818,0.010138
20.756,64.4562,0.010138
20.787,64.4313,0.010138
20.818,64.4041,0.010138
20.834,64.3910,0.010138
20.864,64.3639,0.015409
20.880,64.3491,0.015409
20.895,64.3355,0.015409
20.911,64.3209,0.015409
20.928,64.3050,0.015409
20.944,64.2897,0.015409
20.971,64.2635,0.015409
20.991,64.2431,0.015409
21.007,64.2268,0.015409
21.023,64.2114,0.015409
21.040,64.1938,0.015409
21.058,64.1746,0.015409
21.075,64.1576,0.015409
21.094,64.1362,0.015409
21.112,64.1179,0.008359
21.141,64.0853,0.008359
21.156,64.0674,0.008359
21.178,64.0445,0.008359
21.203,64.0153,0.008359
21.224,63.9905,0.008359
21.241,63.9699,0.008359
21.257,63.9517,0.008359
21.272,63.9332,0.008359
21.288,63.9135,0.008359
21.304,63.8938,0.008359
21.320,63.8749,0.008359
21.336,63.8548,0.008359
21.352,63.8341,-0.000461
21.368,63.8132,-0.000461
21.384,63.7928,-0.000461
21.400,63.7722,-0.000461
21.416,63.7509,-0.000461
21.432,63.7304,-0.000461
21.448,63.7087,-0.000461
21.464,63.6874,-0.000461
21.481,63.6647,-0.000461
21.496,63.6430,-0.000461
21.512,63.6217,-0.000461
21.535,63.5878,-0.000461
21.559,63.5554,-0.000461
21.576,63.5303,-0.000461
21.592,63.5079,-0.000461
21.608,63.4839,-0.000461
21.624,63.4614,-0.000452
21.640,63.4371,-0.000452
21.656,63.4124,-0.000452
21.672,63.3894,-0.000452
21.688,63.3644,-0.000452
21.715,63.3230,-0.000452
21.730,63.3001,-0.000452
21.746,63.2758,-0.000452
21.762,63.2506,-0.000452
21.778,63.2244,-0.000452
21.794,63.1986,-0.000452
21.810,63.1733,-0.000452
21.826,63.1479,-0.000452
21.843,63.1194,-0.000452
21.869,63.0761,-0.000414
21.890,63.0421,-0.000414
21.907,63.0127,-0.000414
21.923,62.9863,-0.000414
21.938,62.9604,-0.000414
21.954,62.9317,-0.000414
21.970,62.9042,-0.000414
21.986,62.8775,-0.000414
22.002,62.8488,-0.000414
22.018,62.8202,-0.000414
22.034,62.7915,-0.000414
22.050,62.7637,-0.000414
22.065,62.7353,-0.000414
22.081,62.7065,-0.000414
22.098,62.6759,-0.000414
22.114,62.6473,-0.000461
22.130,62.6172,-0.000461
22.146,62.5879,-0.000461
22.162,62.5573,-0.000461
22.177,62.5278,-0.000461
22.194,62.4970,-0.000461
22.209,62.4654,-0.000461
22.226,62.4348,-0.000461
22.241,62.4050,-0.000461
22.273,62.3424,-0.000461
22.303,62.2842,-0.000461
22.319,62.2515,-0.000461
22.336,62.2173,-0.000461
22.351,62.1854,-0.000461
22.367,62.1542,-0.000518
22.384,62.1195,-0.000518
22.402,62.0830,-0.000518
22.419,62.0481,-0.000518
22.443,61.9958,-0.000518
22.464,61.9542,-0.000518
22.479,61.9209,-0.000518
22.495,61.8871,-0.000518
22.512,61.8506,-0.000518
22.528,61.8179,-0.000518
22.543,61.7851,-0.000518
22.561,61.7485,-0.000518
22.576,61.7174,-0.000518
22.592,61.6833,-0.000518
22.607,61.6522,-0.000537
22.624,61.6184,-0.000537
22.640,61.5848,-0.000537
22.655,61.5537,-0.000537
22.671,61.5215,-0.000537
22.687,61.4893,-0.000537
22.703,61.4577,-0.000537
22.720,61.4255,-0.000537
22.735,61.3947,-0.000537
22.752,61.3611,-0.000537
22.767,61.3310,-0.000537
22.783,61.3012,-0.000537
22.800,61.2701,-0.000537
22.816,61.2392,-0.000537
22.832,61.2073,-0.000537
22.848,61.1785,-0.000631
22.864,61.1489,-0.000631
22.880,61.1183,-0.000631
22.895,61.0903,-0.000631
22.912,61.0601,-0.000631
22.927,61.0318,-0.000631
22.945,60.9996,-0.000631
22.970,60.9549,-0.000631
22.985,60.9264,-0.000631
23.008,60.8874,-0.000631
23.023,60.8610,-0.000631
23.039,60.8331,-0.000631
23.055,60.8056,-0.000631
23.072,60.7769,-0.000631
23.087,60.7508,-0.000697
23.103,60.7239,-0.000697
23.120,60.6962,-0.000697
23.136,60.6685,-0.000697
23.151,60.6437,-0.000697
23.167,60.6170,-0.000697
23.184,60.5909,-0.000697
23.199,60.5654,-0.000697
23.215,60.5399,-0.000697
23.231,60.5138,-0.000697
23.247,60.4890,-0.000697
23.264,60.4627,-0.000697
23.280,60.4385,-0.000697
23.296,60.4132,-0.000697
23.314,60.3843,-0.000697
23.342,60.3430,-0.000697
23.359,60.3171,-0.000697
23.384,60.2806,-0.000659
23.400,60.2575,-0.000659
23.416,60.2347,-0.000659
23.431,60.2123,-0.000659
23.447,60.1892,-0.000659
23.463,60.1664,-0.000659
23.479,60.1438,-0.000659
23.495,60.1217,-0.000659
23.511,60.0998,-0.000659
23.527,60.0771,-0.000659
23.543,60.0559,-0.000659
23.560,60.0328,-0.000659
23.575,60.0131,-0.000659
23.591,59.9921,-0.000584
23.607,59.9713,-0.000584
23.624,59.9488,-0.000584
23.652,59.9135,-0.000584
23.671,59.8893,-0.000584
23.687,59.8693,-0.000584
23.703,59.8494,-0.000584
23.719,59.8294,-0.000584
23.736,59.8092,-0.000584
23.755,59.7855,-0.000584
23.777,59.7614,-0.000584
23.808,59.7250,-0.000584
23.838,59.6904,-0.000584
23.853,59.6735,-0.000508
23.884,59.6392,-0.000508
23.914,59.6067,-0.000508
23.946,59.5734,-0.000508
23.976,59.5424,-0.000508
23.999,59.5184,-0.000508
24.022,59.4953,-0.000508
24.039,59.4792,-0.000508
24.055,59.4639,-0.000508
24.072,59.4475,-0.000508
24.087,59.4331,-0.000433
24.103,59.4185,-0.000433
24.119,59.4028,-0.000433
24.136,59.3878,-0.000433
24.151,59.3742,-0.000433
24.168,59.3595,-0.000433
24.184,59.3458,-0.000433
24.200,59.3318,-0.000433
24.215,59.3189,-0.000433
24.231,59.3058,-0.000433
24.248,59.2920,-0.000433
24.271,59.2732,-0.000433
24.302,59.2479,-0.000433
24.318,59.2362,-0.000433
24.334,59.2240,-0.000433
24.365,59.2009,-0.000405
24.396,59.1791,-0.000405
24.412,59.1680,-0.000405
24.443,59.1467,-0.000405
24.473,59.1268,-0.000405
24.503,59.1073,-0.000405
24.519,59.0978,-0.000405
24.535,59.0882,-0.000405
24.551,59.0786,-0.000405
24.567,59.0690,-0.000405
24.583,59.0605,-0.000405
24.599,59.0513,-0.000433
24.615,59.0426,-0.000433
24.631,59.0340,-0.000433
24.647,59.0256,-0.000433
24.664,59.0169,-0.000433
24.689,59.0045,-0.000433
24.711,58.9940,-0.000433
24.727,58.9869,-0.000433
24.742,58.9800,-0.000433
24.759,58.9726,-0.000433
24.776,58.9656,-0.000433
24.801,58.9550,-0.000433
24.823,58.9469,-0.000433
24.839,58.9409,-0.000433
24.855,58.9349,-0.000433
24.871,58.9294,-0.000489
24.887,58.9239,-0.000489
24.903,58.9186,-0.000489
24.919,58.9135,-0.000489
24.934,58.9088,-0.000489
24.951,58.9041,-0.000489
24.967,58.8995,-0.000489
24.983,58.8950,-0.000489
24.999,58.8912,-0.000489
25.015,58.8873,-0.000489
25.032,58.8832,-0.000489
25.060,58.8773,-0.000489
25.078,58.8737,-0.000489
25.094,58.8707,-0.000489
25.110,58.8681,-0.000489
25.127,58.8654,-0.000480
25.142,58.8631,-0.000480
25.158,58.8610,-0.000480
25.175,58.8589,-0.000480
25.192,58.8569,-0.000480
25.214,58.8551,-0.000480
25.230,58.8537,-0.000480
25.261,58.8518,-0.000480
25.291,58.8506,-0.000480
25.322,58.8501,-0.000480
25.339,58.8501,-0.000480
25.369,58.8501,-0.000414
25.399,58.8501,-0.000414
25.415,58.8501,-0.000414
25.430,58.8501,-0.000414
25.447,58.8501,-0.000414
25.464,58.8501,-0.000414
25.493,58.8501,-0.000414
25.527,58.8501,-0.000414
25.555,58.8504,-0.000414
25.573,58.8507,-0.000414
25.590,58.8515,-0.000414
25.605,58.8522,-0.000414
25.621,58.8532,-0.000339
25.637,58.8543,-0.000339
25.657,58.8561,-0.000339
25.679,58.8584,-0.000339
25.710,58.8623,-0.000339
25.741,58.8669,-0.000339
25.771,58.8718,-0.000339
25.787,58.8749,-0.000339
25.818,58.8812,-0.000339
25.834,58.8851,-0.000339
25.865,58.8925,-0.000414
25.895,58.9003,-0.000414
25.926,58.9093,-0.000414
25.942,58.9141,-0.000414
25.959,58.9194,-0.000414
25.974,58.9245,-0.000414
26.003,58.9346,-0.000414
26.022,58.9413,-0.000414
26.038,58.9473,-0.000414
26.053,58.9534,-0.000414
26.082,58.9651,-0.000414
26.097,58.9715,-0.000414
26.114,58.9786,-0.000518
26.129,58.9857,-0.000518
26.145,58.9930,-0.000518
26.162,59.0009,-0.000518
26.190,59.0146,-0.000518
26.210,59.0245,-0.000518
26.226,59.0328,-0.000518
26.242,59.0417,-0.000518
26.268,59.0559,-0.000518
26.292,59.0694,-0.000518
26.314,59.0827,-0.000518
26.345,59.1008,-0.000518
26.361,59.1108,-0.000518
26.376,59.1209,-0.000442
26.392,59.1309,-0.000442
26.423,59.1516,-0.000442
26.454,59.1728,-0.000442
26.486,59.1951,-0.000442
26.516,59.2173,-0.000442
26.547,59.2413,-0.000442
26.577,59.2651,-0.000442
26.594,59.2774,-0.000442
26.609,59.2904,-0.000442
26.640,59.3164,-0.000471
26.655,59.3290,-0.000471
26.671,59.3424,-0.000471
26.687,59.3561,-0.000471
26.703,59.3709,-0.000471
26.719,59.3847,-0.000471
26.735,59.3988,-0.000471
26.751,59.4134,-0.000471
26.767,59.4284,-0.000471
26.783,59.4438,-0.000471
26.799,59.4588,-0.000471
26.815,59.4742,-0.000471
26.831,59.4900,-0.000471
26.847,59.5063,-0.000471
26.863,59.5219,-0.000537
26.879,59.5378,-0.000537
26.895,59.5553,-0.000537
26.911,59.5714,-0.000537
26.927,59.5876,-0.000537
26.943,59.6049,-0.000537
26.959,59.6224,-0.000537
26.975,59.6393,-0.000537
26.991,59.6569,-0.000537
27.007,59.6752,-0.000537
27.023,59.6931,-0.000537
27.039,59.7108,-0.000537
27.055,59.7298,-0.000537
27.071,59.7480,-0.000537
27.087,59.7669,-0.000537
27.103,59.7859,-0.000537
27.119,59.8042,-0.000537
27.136,59.8254,-0.000537
27.151,59.8437,-0.000537
27.167,59.8643,-0.000537
27.183,59.8830,-0.000537
27.199,59.9036,-0.000537
27.215,59.9233,-0.000537
27.231,59.9440,-0.000537
27.247,59.9645,-0.000537
27.264,59.9869,-0.000537
27.279,60.0070,-0.000537
27.295,60.0280,-0.000537
27.311,60.0493,-0.000537
27.330,60.0746,-0.000537
27.354,60.1077,-0.000527
27.375,60.1376,-0.000527
27.391,60.1603,-0.000527
27.407,60.1825,-0.000527
27.423,60.2053,-0.000527
27.439,60.2284,-0.000527
27.455,60.2517,-0.000527
27.471,60.2743,-0.000527
27.487,60.2978,-0.000527
27.503,60.3218,-0.000527
27.519,60.3466,-0.000527
27.535,60.3698,-0.000527
27.551,60.3941,-0.000527
27.567,60.4189,-0.000527
27.583,60.4436,-0.000527
27.599,60.4696,-0.000537
27.615,60.4935,-0.000537
27.634,60.5246,-0.000537
27.662,60.5693,-0.000537
27.679,60.5965,-0.000537
27.695,60.6227,-0.000537
27.712,60.6502,-0.000537
27.727,60.6751,-0.000537
27.755,60.7231,-0.000537
27.778,60.7631,-0.000537
27.803,60.8037,-0.000537
27.819,60.8318,-0.000537
27.835,60.8587,-0.000537
27.851,60.8868,-0.000584
27.867,60.9156,-0.000584
27.883,60.9441,-0.000584
27.899,60.9731,-0.000584
27.915,61.0019,-0.000584
27.932,61.0322,-0.000584
27.956,61.0763,-0.000584
27.987,61.1344,-0.000584
28.002,61.1619,-0.000584
28.018,61.1928,-0.000584
28.049,61.2510,-0.000584
28.064,61.2794,-0.000584
28.095,61.3386,-0.000584
28.111,61.3710,-0.000697
28.127,61.4009,-0.000697
28.142,61.4317,-0.000697
28.158,61.4634,-0.000697
28.174,61.4953,-0.000697
28.205,61.5567,-0.000697
28.236,61.6191,-0.000697
28.267,61.6831,-0.000697
28.282,61.7154,-0.000697
28.312,61.7787,-0.000697
28.334,61.8248,-0.000697
28.359,61.8767,-0.000819
28.375,61.9120,-0.000819
28.393,61.9480,-0.000819
28.408,61.9807,-0.000819
28.423,62.0132,-0.000819
28.440,62.0464,-0.000819
28.456,62.0787,-0.000819
28.471,62.1112,-0.000819
28.493,62.1558,-0.000819
28.515,62.1999,-0.000819
28.536,62.2402,-0.000819
28.551,62.2719,-0.000819
28.568,62.3035,-0.000819
28.583,62.3339,-0.000819
28.599,62.3651,-0.000791
28.615,62.3962,-0.000791
28.633,62.4296,-0.000791
28.653,62.4691,-0.000791
28.669,62.4990,-0.000791
28.699,62.5548,-0.000791
28.715,62.5835,-0.000791
28.730,62.6134,-0.000791
28.761,62.6683,-0.000791
28.791,62.7234,-0.000791
28.808,62.7526,-0.000791
28.837,62.8065,-0.000791
28.854,62.8344,-0.000791
28.884,62.8874,-0.000715
28.902,62.9180,-0.000715
28.932,62.9674,-0.000715
28.948,62.9963,-0.000715
28.964,63.0229,-0.000715
28.980,63.0488,-0.000715
28.996,63.0751,-0.000715
29.013,63.1019,-0.000715
29.028,63.1276,-0.000715
29.044,63.1532,-0.000715
29.060,63.1789,-0.000715
29.076,63.2040,-0.000715
29.093,63.2305,-0.000715
29.109,63.2558,-0.000715
29.125,63.2801,-0.000621
29.140,63.3040,-0.000621
29.157,63.3292,-0.000621
29.173,63.3533,-0.000621
29.195,63.3857,-0.000621
29.226,63.4320,-0.000621
29.256,63.4752,-0.000621
29.286,63.5187,-0.000621
29.302,63.5415,-0.000621
29.318,63.5631,-0.000621
29.334,63.5855,-0.000621
29.350,63.6080,-0.000621
29.380,63.6488,-0.000621
29.396,63.6709,-0.000461
29.412,63.6919,-0.000461
29.429,63.7132,-0.000461
29.444,63.7338,-0.000461
29.461,63.7554,-0.000461
29.490,63.7932,-0.000461
29.508,63.8154,-0.000461
29.524,63.8365,-0.000461
29.540,63.8553,-0.000461
29.556,63.8743,-0.000461
29.572,63.8940,-0.000461
29.590,63.9146,-0.000461
29.614,63.9444,-0.000461
29.630,63.9629,-0.000405
29.661,63.9985,-0.000405
29.692,64.0326,-0.000405
29.708,64.0514,-0.000405
29.738,64.0833,-0.000405
29.754,64.1003,-0.000405
29.785,64.1336,-0.000405
29.801,64.1495,-0.000405
29.817,64.1653,-0.000405
29.847,64.1969,-0.000405
29.879,64.2271,-0.000442
29.894,64.2423,-0.000442
29.910,64.2583,-0.000442
29.942,64.2871,-0.000442
29.958,64.3017,-0.000442
29.973,64.3171,-0.000442
30.003,64.3426,-0.000442
30.024,64.3600,-0.000442
30.050,64.3828,-0.000442
30.068,64.3973,-0.000442
30.084,64.4114,-0.000442
30.100,64.4234,-0.000442
30.116,64.4361,-0.000489
30.132,64.4490,-0.000489
30.148,64.4617,-0.000489
30.164,64.4733,-0.000489
30.180,64.4857,-0.000489
30.196,64.4969,-0.000489
30.213,64.5097,-0.000489
30.238,64.5275,-0.000489
30.270,64.5495,-0.000489
30.299,64.5687,-0.000489
30.330,64.5886,-0.000489
30.345,64.5981,-0.000489
30.361,64.6074,-0.000508
30.391,64.6258,-0.000508
30.422,64.6431,-0.000508
30.453,64.6602,-0.000508
30.470,64.6689,-0.000508
30.499,64.6842,-0.000508
30.516,64.6922,-0.000508
30.532,64.7002,-0.000508
30.548,64.7075,-0.000508
30.564,64.7149,-0.000508
30.580,64.7221,-0.000508
30.596,64.7288,-0.000508
30.612,64.7358,-0.000555
30.628,64.7422,-0.000555
30.647,64.7498,-0.000555
30.668,64.7581,-0.000555
30.684,64.7642,-0.000555
30.701,64.7699,-0.000555
30.732,64.7800,-0.000555
30.747,64.7854,-0.000555
30.778,64.7944,-0.000555
30.809,64.8032,-0.000555
30.840,64.8109,-0.000555
30.871,64.8182,-0.000631
30.886,64.8213,-0.000631
30.902,64.8247,-0.000631
30.933,64.8304,-0.000631
30.949,64.8330,-0.000631
30.980,64.8376,-0.000631
30.996,64.8397,-0.000631
31.011,64.8418,-0.000631
31.034,64.8439,-0.000631
31.049,64.8454,-0.000631
31.065,64.8466,-0.000631
31.081,64.8476,-0.000631
31.098,64.8486,-0.000631
31.113,64.8493,-0.000631
31.129,64.8497,-0.000687
31.145,64.8500,-0.000687
31.161,64.8501,-0.000687
31.177,64.8501,-0.000687
31.194,64.8501,-0.000687
31.209,64.8501,-0.000687
31.226,64.8501,-0.000687
31.242,64.8501,-0.000687
31.258,64.8501,-0.000687
31.274,64.8501,-0.000687
31.290,64.8501,-0.000687
31.305,64.8501,-0.000687
31.322,64.8501,-0.000687
31.351,64.8501,-0.000725
31.369,64.8501,-0.000725
31.388,64.8501,-0.000725
31.413,64.8501,-0.000725
31.433,64.8501,-0.000725
31.450,64.8501,-0.000725
31.466,64.8501,-0.000725
31.482,64.8501,-0.000725
31.497,64.8501,-0.000725
31.513,64.8501,-0.000725
31.529,64.8501,-0.000725
31.545,64.8501,-0.000725
31.569,64.8501,-0.000725
31.584,64.8501,-0.000725
31.601,64.8501,-0.000715
31.617,64.8501,-0.000715
31.632,64.8501,-0.000715
31.648,64.8501,-0.000715
31.665,64.8501,-0.000715
31.680,64.8501,-0.000715
31.696,64.8501,-0.000715
31.713,64.8501,-0.000715
31.729,64.8501,-0.000715
31.744,64.8501,-0.000715
31.761,64.8501,-0.000715
31.777,64.8501,-0.000715
31.793,64.8501,-0.000715
31.808,64.8501,-0.000715
31.825,64.8501,-0.000715
31.841,64.8501,-0.000715
31.856,64.8501,-0.000715
31.872,64.8501,-0.000715
31.889,64.8501,-0.000715
31.905,64.8501,-0.000715
31.920,64.8501,-0.000715
31.937,64.8501,-0.000715
31.957,64.8501,-0.000715
31.987,64.8501,-0.000715
32.018,64.8501,-0.000715
32.048,64.8501,-0.000715
32.065,64.8501,-0.000715
32.095,64.8501,-0.000715
32.125,64.8501,-0.000744
32.141,64.8501,-0.000744
32.157,64.8501,-0.000744
32.173,64.8501,-0.000744
32.190,64.8501,-0.000744
32.205,64.8501,-0.000744
32.221,64.8501,-0.000744
32.237,64.8501,-0.000744
32.255,64.8501,-0.000744
32.281,64.8501,-0.000744
32.301,64.8501,-0.000744
32.317,64.8501,-0.000744
32.334,64.8501,-0.000744
32.359,64.8501,-0.000734
32.389,64.8501,-0.000734
32.420,64.8501,-0.000734
32.436,64.8501,-0.000734
32.452,64.8501,-0.000734
32.482,64.8501,-0.000734
32.497,64.8501,-0.000734
32.529,64.8501,-0.000734
32.545,64.8501,-0.000734
32.576,64.8501,-0.000734
32.606,64.8501,-0.000734
32.622,64.8501,-0.000734
32.637,64.8501,-0.000734
32.653,64.8501,-0.000734
32.685,64.8501,-0.000734
32.706,64.8501,-0.000734
32.731,64.8501,-0.000734
32.748,64.8501,-0.000734
32.764,64.8501,-0.000734
32.780,64.8501,-0.000734
32.796,64.8501,-0.000734
32.812,64.8501,-0.000734
32.828,64.8501,-0.000734
32.844,64.8501,-0.000762
32.860,64.8501,-0.000762
32.876,64.8501,-0.000762
32.892,64.8501,-0.000762
32.908,64.8501,-0.000762
32.924,64.8501,-0.000762
32.940,64.8501,-0.000762
32.956,64.8501,-0.000762
32.972,64.8501,-0.000762
32.988,64.8501,-0.000762
33.004,64.8501,-0.000762
33.020,64.8501,-0.000762
33.036,64.8501,-0.000762
33.052,64.8501,-0.000762
33.068,64.8501,-0.000762
33.084,64.8501,-0.000762
33.099,64.8501,-0.000687
33.119,64.8501,-0.000687
33.148,64.8501,-0.000687
33.178,64.8501,-0.000687
33.196,64.8501,-0.000687
33.212,64.8501,-0.000687
33.241,64.8501,-0.000687
33.257,64.8501,-0.000687
33.272,64.8501,-0.000687
33.288,64.8501,-0.000687
33.304,64.8501,-0.000687
33.320,64.8501,-0.000687
33.336,64.8501,-0.000687
33.353,64.8501,-0.000715
33.380,64.8501,-0.000715
33.400,64.8501,-0.000715
33.416,64.8501,-0.000715
33.432,64.8501,-0.000715
33.448,64.8501,-0.000715
33.464,64.8501,-0.000715
33.479,64.8501,-0.000715
33.496,64.8501,-0.000715
33.511,64.8501,-0.000715
33.528,64.8501,-0.000715
33.544,64.8501,-0.000715
33.560,64.8501,-0.000715
33.575,64.8501,-0.000715
33.592,64.8501,-0.000715
33.607,64.8501,-0.000715
33.623,64.8501,-0.000744
33.640,64.8501,-0.000744
33.656,64.8501,-0.000744
33.672,64.8501,-0.000744
33.687,64.8501,-0.000744
33.704,64.8501,-0.000744
33.720,64.8501,-0.000744
33.735,64.8501,-0.000744
33.751,64.8501,-0.000744
33.783,64.8501,-0.000744
33.799,64.8501,-0.000744
33.815,64.8501,-0.000744
33.830,64.8501,-0.000744
33.847,64.8501,-0.000744
33.863,64.8501,-0.000744
33.879,64.8501,-0.000706
33.894,64.8501,-0.000706
33.912,64.8501,-0.000706
33.939,64.8501,-0.000706
33.958,64.8501,-0.000706
33.974,64.8501,-0.000706
33.991,64.8501,-0.000706
34.007,64.8501,-0.000706
34.022,64.8501,-0.000706
34.039,64.8501,-0.000706
34.055,64.8501,-0.000706
34.070,64.8501,-0.000706
34.087,64.8501,-0.000706
34.102,64.8501,-0.000706
34.118,64.8501,-0.000706
34.134,64.8501,-0.000744
34.150,64.8501,-0.000744
34.167,64.8501,-0.000744
34.188,64.8501,-0.000744
34.219,64.8501,-0.000744
34.249,64.8501,-0.000744
34.265,64.8501,-0.000744
34.281,64.8501,-0.000744
34.297,64.8501,-0.000744
34.312,64.8501,-0.000744
34.343,64.8501,-0.000744
34.359,64.8501,-0.000744
34.375,64.8501,-0.000744
34.390,64.8501,-0.000744
34.407,64.8501,-0.000744
34.437,64.8501,-0.000744
34.454,64.8501,-0.000744
34.471,64.8501,-0.000744
34.487,64.8501,-0.000744
34.502,64.8501,-0.000744
34.518,64.8501,-0.000744
34.537,64.8501,-0.000744
34.561,64.8501,-0.000744
34.582,64.8501,-0.000744
34.599,64.8501,-0.000744
34.616,64.8501,-0.000744
34.638,64.8501,-0.000744
34.669,64.8501,-0.000697
34.699,64.8501,-0.000697
34.729,64.8501,-0.000697
34.745,64.8501,-0.000697
34.761,64.8501,-0.000697
34.777,64.8501,-0.000697
34.807,64.8501,-0.000697
34.838,64.8501,-0.000697
34.869,64.8501,-0.000697
34.886,64.8501,-0.000697
34.915,64.8501,-0.000697
34.932,64.8501,-0.000697
34.948,64.8501,-0.000697
34.964,64.8501,-0.000697
34.982,64.8501,-0.000697
35.000,64.8501,-0.000697
35.024,64.8501,-0.000697
35.044,64.8501,-0.000697
35.060,64.8501,-0.000697
35.076,64.8501,-0.000697
35.092,64.8501,-0.000697
35.109,64.8501,-0.000697
35.124,64.8501,-0.000697
35.140,64.8501,-0.000791
35.156,64.8501,-0.000791
35.172,64.8501,-0.000791
35.188,64.8501,-0.000791
35.204,64.8501,-0.000791
35.220,64.8501,-0.000791
35.236,64.8501,-0.000791
35.252,64.8501,-0.000791
35.268,64.8501,-0.000791
35.284,64.8501,-0.000791
35.301,64.8501,-0.000791
35.317,64.8501,-0.000791
35.332,64.8501,-0.000791
35.357,64.8501,-0.000791
35.384,64.8501,-0.000791
35.411,64.8501,-0.000951
35.442,64.8501,-0.000951
35.473,64.8501,-0.000951
35.489,64.8501,-0.000951
35.505,64.8500,-0.000951
35.521,64.8497,-0.000951
35.537,64.8493,-0.000951
35.553,64.8485,-0.000951
35.569,64.8476,-0.000951
35.586,64.8464,-0.000951
35.601,64.8453,-0.001054
35.617,64.8438,-0.001054
35.633,64.8422,-0.001054
35.649,64.8403,-0.001054
35.665,64.8381,-0.001054
35.681,64.8360,-0.001054
35.698,64.8334,-0.001054
35.714,64.8308,-0.001054
35.729,64.8280,-0.001054
35.745,64.8252,-0.001054
35.761,64.8218,-0.001054
35.777,64.8185,-0.001054
35.793,64.8150,-0.001054
35.809,64.8111,-0.001054
35.825,64.8071,-0.001054
35.841,64.8030,-0.000329
35.857,64.7986,-0.000329
35.873,64.7941,-0.000329
35.889,64.7893,-0.000329
35.905,64.7841,-0.000329
35.921,64.7792,-0.000329
35.937,64.7737,-0.000329
35.953,64.7678,-0.000329
35.969,64.7624,-0.000329
35.999,64.7509,-0.000329
36.014,64.7452,-0.000329
36.032,64.7381,-0.000329
36.047,64.7320,-0.000329
36.063,64.7251,-0.000329
36.079,64.7177,-0.000329
36.095,64.7107,0.002702
36.111,64.7033,0.002702
36.128,64.6950,0.002702
36.144,64.6873,0.002702
36.159,64.6795,0.002702
36.175,64.6712,0.002702
36.195,64.6602,0.002702
36.215,64.6498,0.002702
36.246,64.6326,0.002702
36.277,64.6142,0.002702
36.308,64.5956,0.002702
36.338,64.5763,0.002702
36.369,64.5561,0.008434
36.384,64.5450,0.008434
36.415,64.5249,0.008434
36.432,64.5125,0.008434
36.461,64.4908,0.008434
36.479,64.4784,0.008434
36.495,64.4656,0.008434
36.511,64.4541,0.008434
36.526,64.4417,0.008434
36.552,64.4210,0.008434
36.569,64.4074,0.008434
36.585,64.3947,0.008434
36.600,64.3816,0.015532
36.619,64.3653,0.015532
36.647,64.3414,0.015532
36.664,64.3261,0.015532
36.681,64.3115,0.015532
36.697,64.2960,0.015532
36.712,64.2823,0.015532
36.729,64.2667,0.015532
36.750,64.2464,0.015532
36.765,64.2314,0.015532
36.789,64.2093,0.015532
36.808,64.1901,0.015532
36.825,64.1738,0.015532
36.840,64.1579,0.009432
36.858,64.1397,0.009432
36.880,64.1160,0.009432
36.911,64.0839,0.009432
36.927,64.0657,0.009432
36.943,64.0491,0.009432
36.958,64.0308,0.009432
36.989,63.9976,0.009432
37.020,63.9610,0.009432
37.036,63.9429,0.009432
37.053,63.9233,0.009432
37.084,63.8852,0.009432
37.105,63.8607,-0.000377
37.121,63.8407,-0.000377
37.137,63.8211,-0.000377
37.153,63.8000,-0.000377
37.169,63.7800,-0.000377
37.184,63.7607,-0.000377
37.200,63.7402,-0.000377
37.217,63.7190,-0.000377
37.233,63.6976,-0.000377
37.248,63.6772,-0.000377
37.264,63.6554,-0.000377
37.281,63.6326,-0.000377
37.297,63.6119,-0.000377
37.313,63.5892,-0.000377
37.331,63.5644,-0.000377
37.363,63.5200,-0.000377
37.392,63.4773,-0.000405
37.410,63.4523,-0.000405
37.439,63.4087,-0.000405
37.456,63.3838,-0.000405
37.474,63.3572,-0.000405
37.501,63.3151,-0.000405
37.520,63.2863,-0.000405
37.537,63.2610,-0.000405
37.552,63.2373,-0.000405
37.568,63.2125,-0.000405
37.584,63.1871,-0.000405
37.602,63.1576,-0.000405
37.626,63.1188,-0.000405
37.657,63.0678,-0.000348
37.688,63.0173,-0.000348
37.720,62.9645,-0.000348
37.735,62.9387,-0.000348
37.751,62.9115,-0.000348
37.781,62.8602,-0.000348
37.797,62.8323,-0.000348
37.813,62.8050,-0.000348
37.843,62.7509,-0.000348
37.873,62.6955,-0.000395
37.903,62.6413,-0.000395
37.921,62.6098,-0.000395
37.950,62.5562,-0.000395
37.969,62.5171,-0.000395
37.996,62.4695,-0.000395
38.016,62.4304,-0.000395
38.032,62.3993,-0.000395
38.048,62.3698,-0.000395
38.064,62.3384,-0.000395
38.080,62.3074,-0.000395
38.097,62.2739,-0.000395
38.112,62.2428,-0.000395
38.128,62.2116,-0.000527
38.145,62.1777,-0.000527
38.175,62.1175,-0.000527
38.191,62.0839,-0.000527
38.207,62.0519,-0.000527
38.224,62.0168,-0.000527
38.245,61.9738,-0.000527
38.275,61.9095,-0.000527
38.290,61.8760,-0.000527
38.306,61.8439,-0.000527
38.337,61.7784,-0.000527
38.367,61.7128,-0.000584
38.383,61.6816,-0.000584
38.400,61.6451,-0.000584
38.415,61.6151,-0.000584
38.431,61.5825,-0.000584
38.447,61.5497,-0.000584
38.465,61.5130,-0.000584
38.492,61.4570,-0.000584
38.511,61.4199,-0.000584
38.527,61.3873,-0.000584
38.543,61.3575,-0.000584
38.559,61.3251,-0.000584
38.575,61.2949,-0.000584
38.591,61.2635,-0.000584
38.607,61.2316,-0.000584
38.623,61.2023,-0.000640
38.639,61.1713,-0.000640
38.655,61.1411,-0.000640
38.670,61.1122,-0.000640
38.687,61.0822,-0.000640
38.710,61.0378,-0.000640
38.726,61.0091,-0.000640
38.742,60.9795,-0.000640
38.758,60.9519,-0.000640
38.777,60.9166,-0.000640
38.802,60.8721,-0.000640
38.822,60.8378,-0.000640
38.838,60.8091,-0.000640
38.853,60.7823,-0.000640
38.870,60.7540,-0.000697
38.886,60.7273,-0.000697
38.903,60.6981,-0.000697
38.927,60.6569,-0.000697
38.958,60.6059,-0.000697
38.988,60.5553,-0.000697
39.019,60.5066,-0.000697
39.035,60.4800,-0.000697
39.065,60.4318,-0.000697
39.081,60.4076,-0.000697
39.112,60.3594,-0.000659
39.128,60.3354,-0.000659
39.159,60.2887,-0.000659
39.188,60.2456,-0.000659
39.207,60.2161,-0.000659
39.223,60.1937,-0.000659
39.250,60.1551,-0.000659
39.270,60.1263,-0.000659
39.285,60.1049,-0.000659
39.302,60.0813,-0.000659
39.317,60.0602,-0.000659
39.333,60.0371,-0.000659
39.350,60.0158,-0.000659
39.365,59.9947,-0.000574
39.381,59.9733,-0.000574
39.397,59.9521,-0.000574
39.413,59.9311,-0.000574
39.429,59.9104,-0.000574
39.446,59.8892,-0.000574
39.462,59.8686,-0.000574
39.477,59.8490,-0.000574
39.493,59.8290,-0.000574
39.509,59.8091,-0.000574
39.525,59.7891,-0.000574
39.542,59.7690,-0.000574
39.558,59.7500,-0.000574
39.573,59.7311,-0.000574
39.590,59.7112,-0.000574
39.605,59.6941,-0.000518
39.622,59.6741,-0.000518
39.642,59.6503,-0.000518
39.667,59.6234,-0.000518
39.686,59.6029,-0.000518
39.702,59.5850,-0.000518
39.717,59.5685,-0.000518
39.734,59.5505,-0.000518
39.749,59.5344,-0.000518
39.766,59.5164,-0.000518
39.790,59.4908,-0.000518
39.807,59.4751,-0.000518
39.822,59.4594,-0.000518
39.839,59.4432,-0.000518
39.855,59.4271,-0.000518
39.870,59.4123,-0.000508
39.886,59.3971,-0.000508
39.902,59.3819,-0.000508
39.919,59.3662,-0.000508
39.934,59.3523,-0.000508
39.950,59.3374,-0.000508
39.966,59.3233,-0.000508
39.983,59.3089,-0.000508
39.998,59.2954,-0.000508
40.015,59.2805,-0.000508
40.030,59.2677,-0.000508
40.046,59.2548,-0.000508
40.062,59.2412,-0.000508
40.078,59.2285,-0.000508
40.094,59.2156,-0.000489
40.110,59.2032,-0.000489
40.127,59.1896,-0.000489
40.142,59.1783,-0.000489
40.158,59.1665,-0.000489
40.174,59.1547,-0.000489
40.191,59.1422,-0.000489
40.207,59.1307,-0.000489
40.223,59.1197,-0.000489
40.254,59.0983,-0.000489
40.276,59.0841,-0.000489
40.300,59.0684,-0.000489
40.332,59.0482,-0.000489
40.348,59.0383,-0.000489
40.364,59.0290,-0.000480
40.380,59.0197,-0.000480
40.397,59.0097,-0.000480
40.425,58.9947,-0.000480
40.444,58.9844,-0.000480
40.460,58.9757,-0.000480
40.476,58.9674,-0.000480
40.492,58.9599,-0.000480
40.508,58.9521,-0.000480
40.524,58.9442,-0.000480
40.541,58.9368,-0.000480
40.564,58.9265,-0.000480
40.596,58.9130,-0.000480
40.626,58.9010,-0.000480
40.641,58.8950,-0.000480
40.673,58.8830,-0.000480
40.704,58.8726,-0.000480
40.723,58.8664,-0.000480
40.750,58.8583,-0.000480
40.765,58.8538,-0.000480
40.780,58.8495,-0.000480
40.796,58.8454,-0.000480
40.812,58.8413,-0.000480
40.832,58.8362,-0.000480
40.857,58.8306,-0.000461
40.874,58.8272,-0.000461
40.903,58.8217,-0.000461
40.921,58.8185,-0.000461
40.949,58.8141,-0.000461
40.968,58.8114,-0.000461
40.984,58.8094,-0.000461
41.000,58.8076,-0.000461
41.016,58.8061,-0.000461
41.032,58.8046,-0.000461
41.048,58.8034,-0.000461
41.064,58.8024,-0.000461
41.080,58.8015,-0.000461
41.096,58.8008,-0.000461
41.112,58.8004,-0.000461
41.128,58.8001,-0.000452
41.144,58.8000,-0.000452
41.160,58.8000,-0.000452
41.176,58.8000,-0.000452
41.192,58.8000,-0.000452
41.208,58.8000,-0.000452
41.224,58.8000,-0.000452
41.240,58.8000,-0.000452
41.256,58.8000,-0.000452
41.272,58.8000,-0.000452
41.288,58.8000,-0.000452
41.304,58.8000,-0.000452
41.320,58.8000,-0.000452
41.336,58.8001,-0.000452
41.352,58.8005,-0.000452
41.367,58.8010,-0.000452
41.397,58.8025,-0.000424
41.413,58.8036,-0.000424
41.429,58.8047,-0.000424
41.445,58.8062,-0.000424
41.461,58.8079,-0.000424
41.478,58.8098,-0.000424
41.507,58.8137,-0.000424
41.525,58.8165,-0.000424
41.541,58.8190,-0.000424
41.557,58.8218,-0.000424
41.573,58.8248,-0.000424
41.589,58.8282,-0.000424
41.604,58.8314,-0.000424
41.621,58.8350,-0.000480
41.637,58.8387,-0.000480
41.654,58.8429,-0.000480
41.669,58.8469,-0.000480
41.684,58.8512,-0.000480
41.701,58.8559,-0.000480
41.717,58.8607,-0.000480
41.732,58.8654,-0.000480
41.748,58.8706,-0.000480
41.764,58.8759,-0.000480
41.780,58.8816,-0.000480
41.796,58.8872,-0.000480
41.812,58.8930,-0.000480
41.829,58.8992,-0.000480
41.845,58.9057,-0.000480
41.861,58.9125,-0.000442
41.877,58.9189,-0.000442
41.893,58.9259,-0.000442
41.923,58.9392,-0.000442
41.954,58.9539,-0.000442
41.971,58.9620,-0.000442
41.987,58.9699,-0.000442
42.003,58.9784,-0.000442
42.023,58.9894,-0.000442
42.048,59.0028,-0.000442
42.067,59.0135,-0.000442
42.083,59.0221,-0.000442
42.098,59.0313,-0.000442
42.114,59.0407,-0.000377
42.131,59.0510,-0.000377
42.147,59.0611,-0.000377
42.162,59.0708,-0.000377
42.178,59.0810,-0.000377
42.195,59.0921,-0.000377
42.210,59.1023,-0.000377
42.226,59.1132,-0.000377
42.242,59.1246,-0.000377
42.259,59.1360,-0.000377
42.275,59.1474,-0.000377
42.290,59.1587,-0.000377
42.307,59.1710,-0.000377
42.322,59.1827,-0.000377
42.338,59.1949,-0.000442
42.354,59.2074,-0.000442
42.370,59.2201,-0.000442
42.387,59.2333,-0.000442
42.402,59.2461,-0.000442
42.419,59.2599,-0.000442
42.436,59.2740,-0.000442
42.451,59.2868,-0.000442
42.466,59.3001,-0.000442
42.496,59.3267,-0.000442
42.513,59.3416,-0.000442
42.528,59.3555,-0.000442
42.544,59.3703,-0.000442
42.560,59.3853,-0.000442
42.577,59.4013,-0.000442
42.592,59.4158,-0.000424
42.608,59.4313,-0.000424
42.624,59.4477,-0.000424
42.640,59.4630,-0.000424
42.657,59.4795,-0.000424
42.672,59.4952,-0.000424
42.688,59.5120,-0.000424
42.704,59.5288,-0.000424
42.721,59.5464,-0.000424
42.736,59.5626,-0.000424
42.753,59.5807,-0.000424
42.776,59.6067,-0.000424
42.792,59.6246,-0.000424
42.808,59.6415,-0.000424
42.838,59.6760,-0.000424
42.869,59.7127,-0.000461
42.900,59.7483,-0.000461
42.916,59.7689,-0.000461
42.946,59.8050,-0.000461
42.962,59.8248,-0.000461
42.977,59.8439,-0.000461
43.008,59.8835,-0.000461
43.024,59.9032,-0.000461
43.053,59.9415,-0.000461
43.069,59.9637,-0.000461
43.085,59.9837,-0.000461
43.101,60.0048,-0.000518
43.119,60.0297,-0.000518
43.148,60.0700,-0.000518
43.165,60.0934,-0.000518
43.181,60.1173,-0.000518
43.197,60.1391,-0.000518
43.213,60.1608,-0.000518
43.229,60.1847,-0.000518
43.245,60.2074,-0.000518
43.261,60.2305,-0.000518
43.277,60.2549,-0.000518
43.293,60.2782,-0.000518
43.311,60.3045,-0.000518
43.334,60.3403,-0.000518
43.349,60.3651,-0.000518
43.365,60.3885,-0.000518
43.396,60.4366,-0.000518
43.426,60.4849,-0.000518
43.458,60.5348,-0.000518
43.473,60.5615,-0.000518
43.505,60.6122,-0.000518
43.536,60.6654,-0.000518
43.566,60.7155,-0.000518
43.597,60.7675,-0.000621
43.613,60.7965,-0.000621
43.629,60.8231,-0.000621
43.645,60.8519,-0.000621
43.661,60.8799,-0.000621
43.677,60.9098,-0.000621
43.693,60.9367,-0.000621
43.709,60.9657,-0.000621
43.726,60.9973,-0.000621
43.753,61.0463,-0.000621
43.773,61.0837,-0.000621
43.789,61.1144,-0.000621
43.805,61.1453,-0.000621
43.822,61.1749,-0.000621
43.837,61.2045,-0.000621
43.853,61.2362,-0.000621
43.869,61.2655,-0.000621
43.885,61.2968,-0.000734
43.901,61.3274,-0.000734
43.917,61.3597,-0.000734
43.933,61.3899,-0.000734
43.949,61.4216,-0.000734
43.965,61.4539,-0.000734
43.981,61.4876,-0.000734
43.997,61.5181,-0.000734
44.013,61.5507,-0.000734
44.030,61.5863,-0.000734
44.048,61.6228,-0.000734
44.078,61.6864,-0.000734
44.094,61.7191,-0.000734
44.109,61.7529,-0.000734
44.124,61.7845,-0.000734
44.155,61.8490,-0.000800
44.171,61.8834,-0.000800
44.186,61.9155,-0.000800
44.202,61.9486,-0.000800
44.222,61.9900,-0.000800
44.250,62.0466,-0.000800
44.267,62.0804,-0.000800
44.282,62.1123,-0.000800
44.299,62.1462,-0.000800
44.314,62.1765,-0.000800
44.331,62.2079,-0.000800
44.347,62.2415,-0.000800
44.362,62.2713,-0.000800
44.378,62.3035,-0.000734
44.394,62.3332,-0.000734
44.413,62.3701,-0.000734
44.429,62.3995,-0.000734
44.444,62.4283,-0.000734
44.466,62.4707,-0.000734
44.497,62.5284,-0.000734
44.513,62.5572,-0.000734
44.543,62.6129,-0.000734
44.575,62.6694,-0.000734
44.591,62.6992,-0.000734
44.622,62.7529,-0.000631
44.651,62.8041,-0.000631
44.667,62.8324,-0.000631
44.697,62.8826,-0.000631
44.714,62.9131,-0.000631
44.730,62.9395,-0.000631
44.746,62.9663,-0.000631
44.762,62.9929,-0.000631
44.780,63.0223,-0.000631
44.805,63.0629,-0.000631
44.835,63.1118,-0.000631
44.851,63.1360,-0.000631
44.866,63.1605,-0.000631
44.882,63.1860,-0.000602
44.913,63.2336,-0.000602
44.944,63.2826,-0.000602
44.960,63.3045,-0.000602
44.975,63.3286,-0.000602
44.991,63.3517,-0.000602
45.022,63.3969,-0.000602
45.038,63.4201,-0.000602
45.069,63.4650,-0.000602
45.100,63.5076,-0.000602
45.131,63.5515,-0.000499
45.151,63.5796,-0.000499
45.177,63.6137,-0.000499
45.195,63.6380,-0.000499
45.221,63.6723,-0.000499
45.237,63.6924,-0.000499
45.252,63.7126,-0.000499
45.268,63.7327,-0.000499
45.286,63.7550,-0.000499
45.314,63.7910,-0.000499
45.332,63.8123,-0.000499
45.350,63.8357,-0.000499
45.376,63.8655,-0.000405
45.396,63.8891,-0.000405
45.415,63.9131,-0.000405
45.431,63.9295,-0.000405
45.453,63.9548,-0.000405
45.484,63.9904,-0.000405
45.516,64.0244,-0.000405
45.547,64.0585,-0.000405
45.578,64.0901,-0.000405
45.593,64.1060,-0.000405
45.624,64.1372,-0.000424
45.639,64.1525,-0.000424
45.670,64.1832,-0.000424
45.701,64.2118,-0.000424
45.717,64.2274,-0.000424
45.733,64.2424,-0.000424
45.762,64.2680,-0.000424
45.781,64.2853,-0.000424
45.808,64.3089,-0.000424
45.828,64.3264,-0.000424
45.845,64.3398,-0.000424
45.860,64.3523,-0.000424
45.876,64.3656,-0.000471
45.892,64.3783,-0.000471
45.908,64.3910,-0.000471
45.924,64.4040,-0.000471
45.940,64.4158,-0.000471
45.956,64.4278,-0.000471
45.972,64.4402,-0.000471
45.988,64.4515,-0.000471
46.004,64.4630,-0.000471
46.020,64.4745,-0.000471
46.036,64.4857,-0.000471
46.052,64.4968,-0.000471
46.068,64.5074,-0.000471
46.084,64.5180,-0.000471
46.100,64.5280,-0.000471
46.116,64.5382,-0.000480
46.132,64.5485,-0.000480
46.149,64.5590,-0.000480
46.179,64.5765,-0.000480
46.196,64.5863,-0.000480
46.212,64.5955,-0.000480
46.228,64.6043,-0.000480
46.244,64.6127,-0.000480
46.260,64.6213,-0.000480
46.276,64.6292,-0.000480
46.292,64.6373,-0.000480
46.309,64.6455,-0.000480
46.324,64.6528,-0.000480
46.340,64.6604,-0.000480
46.356,64.6676,-0.000480
46.372,64.6745,-0.000518
46.388,64.6816,-0.000518
46.404,64.6881,-0.000518
46.420,64.6947,-0.000518
46.436,64.7009,-0.000518
46.452,64.7071,-0.000518
46.468,64.7131,-0.000518
46.484,64.7185,-0.000518
46.500,64.7241,-0.000518
46.517,64.7299,-0.000518
46.532,64.7347,-0.000518
46.548,64.7395,-0.000518
46.564,64.7443,-0.000518
46.580,64.7490,-0.000518
46.596,64.7531,-0.000518
46.612,64.7573,-0.000621
46.629,64.7616,-0.000621
46.645,64.7653,-0.000621
46.660,64.7688,-0.000621
46.676,64.7721,-0.000621
46.692,64.7752,-0.000621
46.709,64.7784,-0.000621
46.724,64.7812,-0.000621
46.740,64.7838,-0.000621
46.756,64.7861,-0.000621
46.773,64.7884,-0.000621
46.789,64.7905,-0.000621
46.805,64.7923,-0.000621
46.828,64.7947,-0.000621
46.853,64.7967,-0.000621
46.874,64.7979,-0.000734
46.893,64.7989,-0.000734
46.908,64.7994,-0.000734
46.924,64.7998,-0.000734
46.940,64.8000,-0.000734
46.956,64.8000,-0.000734
46.972,64.8000,-0.000734
46.988,64.8000,-0.000734
47.005,64.8000,-0.000734
47.023,64.8000,-0.000734
47.038,64.8000,-0.000734
47.060,64.8000,-0.000734
47.090,64.8000,-0.000734
47.106,64.8000,-0.000734
47.137,64.8000,-0.000734
47.168,64.8000,-0.000734
47.198,64.8000,-0.000734
47.214,64.8000,-0.000734
47.245,64.8000,-0.000734
47.261,64.8000,-0.000734
47.291,64.8000,-0.000734
47.307,64.8000,-0.000734
47.325,64.8000,-0.000734
47.353,64.8000,-0.000734
47.388,64.8000,-0.000744
47.403,64.8000,-0.000744
47.419,64.8000,-0.000744
47.435,64.8000,-0.000744
47.451,64.8000,-0.000744
47.467,64.8000,-0.000744
47.482,64.8000,-0.000744
47.498,64.8000,-0.000744
47.514,64.8000,-0.000744
47.530,64.8000,-0.000744
47.547,64.8000,-0.000744
47.570,64.8000,-0.000744
47.587,64.8000,-0.000744
47.617,64.8000,-0.000744
47.650,64.8000,-0.000762
47.679,64.8000,-0.000762
47.709,64.8000,-0.000762
47.726,64.8000,-0.000762
47.756,64.8000,-0.000762
47.786,64.8000,-0.000762
47.802,64.8000,-0.000762
47.818,64.8000,-0.000762
47.836,64.8000,-0.000762
47.863,64.8000,-0.000687
47.883,64.8000,-0.000687
47.898,64.8000,-0.000687
47.920,64.8000,-0.000687
47.938,64.8000,-0.000687
47.956,64.8000,-0.000687
47.986,64.8000,-0.000687
48.001,64.8000,-0.000687
48.017,64.8000,-0.000687
48.048,64.8000,-0.000687
48.063,64.8000,-0.000687
48.079,64.8000,-0.000687
48.096,64.8000,-0.000687
48.111,64.8000,-0.000687
48.127,64.8000,-0.000706
48.143,64.8000,-0.000706
48.166,64.8000,-0.000706
48.187,64.8000,-0.000706
48.207,64.8000,-0.000706
48.224,64.8000,-0.000706
48.240,64.8000,-0.000706
48.256,64.8000,-0.000706
48.271,64.8000,-0.000706
48.287,64.8000,-0.000706
48.304,64.8000,-0.000706
48.319,64.8000,-0.000706
48.335,64.8000,-0.000706
48.351,64.8000,-0.000706
48.368,64.8000,-0.000706
48.390,64.8000,-0.000744
48.420,64.8000,-0.000744
48.436,64.8000,-0.000744
48.466,64.8000,-0.000744
48.482,64.8000,-0.000744
48.512,64.8000,-0.000744
48.544,64.8000,-0.000744
48.560,64.8000,-0.000744
48.575,64.8000,-0.000744
48.591,64.8000,-0.000744
48.608,64.8000,-0.000744
48.623,64.8000,-0.000687
48.639,64.8000,-0.000687
48.655,64.8000,-0.000687
48.672,64.8000,-0.000687
48.688,64.8000,-0.000687
48.703,64.8000,-0.000687
48.719,64.8000,-0.000687
48.736,64.8000,-0.000687
48.752,64.8000,-0.000687
48.767,64.8000,-0.000687
48.784,64.8000,-0.000687
48.800,64.8000,-0.000687
48.816,64.8000,-0.000687
48.832,64.8000,-0.000687
48.847,64.8000,-0.000687
48.864,64.8000,-0.000734
48.879,64.8000,-0.000734
48.896,64.8000,-0.000734
48.911,64.8000,-0.000734
48.927,64.8000,-0.000734
48.943,64.8000,-0.000734
48.959,64.8000,-0.000734
48.975,64.8000,-0.000734
48.992,64.8000,-0.000734
49.007,64.8000,-0.000734
49.023,64.8000,-0.000734
49.039,64.8000,-0.000734
49.055,64.8000,-0.000734
49.071,64.8000,-0.000734
49.087,64.8000,-0.000734
49.103,64.8000,-0.000734
49.119,64.8000,-0.000715
49.136,64.8000,-0.000715
49.157,64.8000,-0.000715
49.179,64.8000,-0.000715
49.199,64.8000,-0.000715
49.215,64.8000,-0.000715
49.231,64.8000,-0.000715
49.248,64.8000,-0.000715
49.264,64.8000,-0.000715
49.279,64.8000,-0.000715
49.295,64.8000,-0.000715
49.311,64.8000,-0.000715
49.327,64.8000,-0.000715
49.343,64.8000,-0.000715
49.359,64.8000,-0.000715
49.375,64.8000,-0.000697
49.391,64.8000,-0.000697
49.408,64.8000,-0.000697
49.428,64.8000,-0.000697
49.444,64.8000,-0.000697
49.475,64.8000,-0.000697
49.490,64.8000,-0.000697
49.506,64.8000,-0.000697
49.537,64.8000,-0.000697
49.552,64.8000,-0.000697
49.582,64.8000,-0.000697
49.598,64.8000,-0.000697
49.614,64.8000,-0.000734
49.630,64.8000,-0.000734
49.647,64.8000,-0.000734
49.677,64.8000,-0.000734
49.694,64.8000,-0.000734
49.710,64.8000,-0.000734
49.726,64.8000,-0.000734
49.742,64.8000,-0.000734
49.758,64.8000,-0.000734
49.775,64.8000,-0.000734
49.801,64.8000,-0.000734
49.822,64.8000,-0.000734
49.840,64.8000,-0.000734
49.863,64.8000,-0.000734
49.893,64.8000,-0.000715
49.924,64.8000,-0.000715
49.940,64.8000,-0.000715
49.970,64.8000,-0.000715
50.001,64.8000,-0.000715
50.017,64.8000,-0.000715
50.033,64.8000,-0.000715
50.063,64.8000,-0.000715
50.079,64.8000,-0.000715
50.110,64.8000,-0.000715
50.140,64.8000,-0.000725
50.156,64.8000,-0.000725
50.172,64.8000,-0.000725
50.188,64.8000,-0.000725
50.204,64.8000,-0.000725
50.220,64.8000,-0.000725
50.236,64.8000,-0.000725
50.252,64.8000,-0.000725
50.275,64.8000,-0.000725
50.299,64.8000,-0.000725
50.316,64.8000,-0.000725
50.332,64.8000,-0.000725
50.348,64.8000,-0.000725
50.363,64.8000,-0.000715
50.380,64.8000,-0.000715
50.396,64.8000,-0.000715
50.411,64.8000,-0.000715
50.428,64.8000,-0.000715
50.444,64.8000,-0.000715
50.461,64.8000,-0.000715
50.481,64.8000,-0.000715
50.497,64.8000,-0.000715
50.513,64.8000,-0.000715
50.529,64.8000,-0.000715
50.544,64.8000,-0.000715
50.575,64.8000,-0.000715
50.591,64.8000,-0.000715
50.622,64.8000,-0.000772
50.638,64.8000,-0.000772
50.654,64.8000,-0.000772
50.670,64.8000,-0.000772
50.685,64.8000,-0.000772
50.701,64.8000,-0.000772
50.733,64.8000,-0.000772
50.748,64.8000,-0.000772
50.764,64.8000,-0.000772
50.779,64.8000,-0.000772
50.795,64.8000,-0.000772
50.811,64.8000,-0.000772
50.828,64.8000,-0.000772
50.845,64.8000,-0.000772
50.873,64.8000,-0.000847
50.892,64.8000,-0.000847
50.908,64.8000,-0.000847
50.923,64.8000,-0.000847
50.939,64.8000,-0.000847
50.955,64.8000,-0.000847
50.972,64.8000,-0.000847
50.987,64.8000,-0.000847
51.004,64.8000,-0.000847
51.019,64.8000,-0.000847
51.036,64.8000,-0.000847
51.051,64.8000,-0.000847
51.068,64.8000,-0.000847
51.084,64.8000,-0.000847
51.100,64.8000,-0.000885
51.116,64.8000,-0.000885
51.131,64.8000,-0.000885
51.147,64.8000,-0.000885
51.164,64.8000,-0.000885
51.179,64.8000,-0.000885
51.195,64.7999,-0.000885
51.211,64.7998,-0.000885
51.227,64.7993,-0.000885
51.257,64.7979,-0.000885
51.274,64.7969,-0.000885
51.289,64.7957,-0.000885
51.306,64.7943,-0.000885
51.322,64.7927,-0.000885
51.337,64.7910,-0.000885
51.354,64.7890,-0.000941
51.369,64.7869,-0.000941
51.385,64.7845,-0.000941
51.401,64.7820,-0.000941
51.417,64.7793,-0.000941
51.433,64.7763,-0.000941
51.452,64.7726,-0.000941
51.476,64.7675,-0.000941
51.507,64.7601,-0.000941
51.530,64.7545,-0.000941
51.545,64.7502,-0.000941
51.561,64.7458,-0.000941
51.578,64.7410,-0.000941
51.594,64.7361,0.000066
51.609,64.7313,0.000066
51.630,64.7242,0.000066
51.661,64.7136,0.000066
51.677,64.7077,0.000066
51.693,64.7017,0.000066
51.723,64.6894,0.000066
51.754,64.6765,0.000066
51.785,64.6627,0.000066
51.802,64.6552,0.000066
51.817,64.6478,0.000066
51.833,64.6399,0.000066
51.849,64.6321,0.000066
51.865,64.6239,0.003718
51.881,64.6155,0.003718
51.897,64.6068,0.003718
51.913,64.5982,0.003718
51.929,64.5893,0.003718
51.949,64.5774,0.003718
51.971,64.5649,0.003718
51.987,64.5551,0.003718
52.009,64.5413,0.003718
52.025,64.5314,0.003718
52.041,64.5215,0.003718
52.057,64.5107,0.003718
52.082,64.4940,0.003718
52.110,64.4740,0.010063
52.141,64.4527,0.010063
52.156,64.4413,0.010063
52.172,64.4288,0.010063
52.204,64.4055,0.010063
52.220,64.3926,0.010063
52.236,64.3801,0.010063
52.267,64.3545,0.010063
52.298,64.3298,0.010063
52.315,64.3155,0.010063
52.344,64.2897,0.017000
52.361,64.2747,0.017000
52.377,64.2601,0.017000
52.393,64.2451,0.017000
52.409,64.2310,0.017000
52.425,64.2164,0.017000
52.443,64.1992,0.017000
52.467,64.1754,0.017000
52.489,64.1542,0.017000
52.505,64.1383,0.017000
52.521,64.1223,0.017000
52.537,64.1052,0.017000
52.553,64.0899,0.017000
52.569,64.0726,0.017000
52.585,64.0562,0.017000
52.600,64.0393,0.009893
52.618,64.0208,0.009893
52.634,64.0035,0.009893
52.649,63.9863,0.009893
52.665,63.9689,0.009893
52.681,63.9509,0.009893
52.697,63.9327,0.009893
52.713,63.9131,0.009893
52.728,63.8958,0.009893
52.746,63.8754,0.009893
52.761,63.8567,0.009893
52.777,63.8385,0.009893
52.793,63.8184,0.009893
52.824,63.7800,0.009893
52.839,63.7608,0.009893
52.857,63.7400,0.009893
52.885,63.7030,-0.000395
52.903,63.6796,-0.000395
52.919,63.6599,-0.000395
52.935,63.6387,-0.000395
52.954,63.6114,-0.000395
52.970,63.5907,-0.000395
52.994,63.5588,-0.000395
53.015,63.5284,-0.000395
53.031,63.5068,-0.000395
53.047,63.4856,-0.000395
53.062,63.4629,-0.000395
53.080,63.4380,-0.000395
53.102,63.4062,-0.000395
53.132,63.3616,-0.000329
53.147,63.3374,-0.000329
53.163,63.3153,-0.000329
53.179,63.2913,-0.000329
53.195,63.2672,-0.000329
53.211,63.2425,-0.000329
53.241,63.1975,-0.000329
53.273,63.1438,-0.000329
53.302,63.0993,-0.000329
53.319,63.0713,-0.000329
53.335,63.0471,-0.000329
53.351,63.0214,-0.000329
53.376,62.9789,-0.000320
53.393,62.9512,-0.000320
53.408,62.9255,-0.000320
53.425,62.8976,-0.000320
53.441,62.8697,-0.000320
53.457,62.8426,-0.000320
53.473,62.8151,-0.000320
53.489,62.7877,-0.000320
53.505,62.7591,-0.000320
53.521,62.7304,-0.000320
53.537,62.7031,-0.000320
53.552,62.6751,-0.000320
53.570,62.6437,-0.000320
53.597,62.5929,-0.000424
53.616,62.5587,-0.000424
53.636,62.5217,-0.000424
53.659,62.4794,-0.000424
53.689,62.4219,-0.000424
53.720,62.3634,-0.000424
53.736,62.3315,-0.000424
53.766,62.2732,-0.000424
53.797,62.2115,-0.000424
53.813,62.1811,-0.000424
53.829,62.1484,-0.000424
53.860,62.0853,-0.000565
53.890,62.0256,-0.000565
53.906,61.9935,-0.000565
53.922,61.9606,-0.000565
53.938,61.9274,-0.000565
53.969,61.8615,-0.000565
53.984,61.8292,-0.000565
54.002,61.7922,-0.000565
54.031,61.7289,-0.000565
54.048,61.6936,-0.000565
54.065,61.6581,-0.000565
54.093,61.5986,-0.000584
54.113,61.5587,-0.000584
54.128,61.5264,-0.000584
54.146,61.4912,-0.000584
54.171,61.4394,-0.000584
54.194,61.3940,-0.000584
54.218,61.3471,-0.000584
54.249,61.2852,-0.000584
54.279,61.2264,-0.000584
54.295,61.1938,-0.000584
54.311,61.1650,-0.000584
54.327,61.1349,-0.000584
54.357,61.0767,-0.000668
54.373,61.0468,-0.000668
54.389,61.0175,-0.000668
54.405,60.9898,-0.000668
54.420,60.9605,-0.000668
54.436,60.9317,-0.000668
54.467,60.8758,-0.000668
54.497,60.8217,-0.000668
54.528,60.7675,-0.000668
54.545,60.7394,-0.000668
54.560,60.7120,-0.000668
54.576,60.6852,-0.000668
54.593,60.6569,-0.000668
54.608,60.6285,-0.000668
54.624,60.6038,-0.000734
54.640,60.5773,-0.000734
54.658,60.5468,-0.000734
54.684,60.5055,-0.000734
54.704,60.4723,-0.000734
54.721,60.4454,-0.000734
54.737,60.4198,-0.000734
54.752,60.3953,-0.000734
54.769,60.3696,-0.000734
54.784,60.3451,-0.000734
54.800,60.3194,-0.000734
54.816,60.2964,-0.000734
54.832,60.2717,-0.000734
54.848,60.2470,-0.000734
54.864,60.2232,-0.000697
54.880,60.2000,-0.000697
54.896,60.1764,-0.000697
54.912,60.1520,-0.000697
54.928,60.1290,-0.000697
54.944,60.1061,-0.000697
54.960,60.0832,-0.000697
54.986,60.0466,-0.000697
55.002,60.0242,-0.000697
55.018,60.0025,-0.000697
55.034,59.9810,-0.000697
55.050,59.9591,-0.000697
55.066,59.9374,-0.000697
55.082,59.9157,-0.000697
55.098,59.8946,-0.000697
55.114,59.8741,-0.000602
55.130,59.8532,-0.000602
55.146,59.8323,-0.000602
55.162,59.8118,-0.000602
55.178,59.7917,-0.000602
55.194,59.7715,-0.000602
55.210,59.7514,-0.000602
55.226,59.7319,-0.000602
55.242,59.7128,-0.000602
55.258,59.6936,-0.000602
55.276,59.6726,-0.000602
55.305,59.6382,-0.000602
55.322,59.6192,-0.000602
55.339,59.5979,-0.000602
55.367,59.5673,-0.000527
55.386,59.5474,-0.000527
55.408,59.5215,-0.000527
55.429,59.5006,-0.000527
55.450,59.4782,-0.000527
55.467,59.4608,-0.000527
55.482,59.4447,-0.000527
55.498,59.4289,-0.000527
55.523,59.4034,-0.000527
55.540,59.3866,-0.000527
55.567,59.3603,-0.000527
55.586,59.3422,-0.000527
55.602,59.3277,-0.000527
55.618,59.3126,-0.000499
55.634,59.2982,-0.000499
55.652,59.2815,-0.000499
55.675,59.2605,-0.000499
55.707,59.2337,-0.000499
55.738,59.2075,-0.000499
55.769,59.1821,-0.000499
55.785,59.1689,-0.000499
55.814,59.1453,-0.000499
55.830,59.1334,-0.000499
55.846,59.1221,-0.000499
55.861,59.1101,-0.000424
55.877,59.0982,-0.000424
55.893,59.0872,-0.000424
55.923,59.0662,-0.000424
55.953,59.0455,-0.000424
55.970,59.0343,-0.000424
55.985,59.0245,-0.000424
56.001,59.0143,-0.000424
56.018,59.0038,-0.000424
56.034,58.9942,-0.000424
56.051,58.9842,-0.000424
56.075,58.9695,-0.000424
56.091,58.9604,-0.000424
56.107,58.9516,-0.000414
56.123,58.9428,-0.000414
56.143,58.9326,-0.000414
56.168,58.9193,-0.000414
56.188,58.9096,-0.000414
56.204,58.9017,-0.000414
56.219,58.8944,-0.000414
56.236,58.8868,-0.000414
56.251,58.8799,-0.000414
56.268,58.8726,-0.000414
56.284,58.8655,-0.000414
56.300,58.8593,-0.000414
56.317,58.8525,-0.000414
56.332,58.8464,-0.000414
56.347,58.8408,-0.000414
56.364,58.8346,-0.000461
56.379,58.8293,-0.000461
56.395,58.8238,-0.000461
56.411,58.8186,-0.000461
56.427,58.8137,-0.000461
56.444,58.8083,-0.000461
56.461,58.8035,-0.000461
56.492,58.7950,-0.000461
56.508,58.7911,-0.000461
56.524,58.7871,-0.000461
56.539,58.7836,-0.000461
56.555,58.7800,-0.000461
56.573,58.7764,-0.000461
56.599,58.7714,-0.000461
56.619,58.7679,-0.000480
56.636,58.7654,-0.000480
56.652,58.7630,-0.000480
56.667,58.7609,-0.000480
56.685,58.7588,-0.000480
56.708,58.7564,-0.000480
56.723,58.7549,-0.000480
56.739,58.7536,-0.000480
56.770,58.7518,-0.000480
56.800,58.7505,-0.000480
56.816,58.7502,-0.000480
56.831,58.7500,-0.000480
56.862,58.7500,-0.000414
56.893,58.7500,-0.000414
56.909,58.7500,-0.000414
56.940,58.7500,-0.000414
56.956,58.7500,-0.000414
56.974,58.7500,-0.000414
57.001,58.7500,-0.000414
57.019,58.7500,-0.000414
57.036,58.7502,-0.000414
57.051,58.7505,-0.000414
57.068,58.7511,-0.000414
57.083,58.7518,-0.000414
57.100,58.7528,-0.000414
57.117,58.7540,-0.000414
57.132,58.7552,-0.000414
57.156,58.7576,-0.000348
57.173,58.7596,-0.000348
57.188,58.7614,-0.000348
57.204,58.7635,-0.000348
57.220,58.7661,-0.000348
57.236,58.7686,-0.000348
57.252,58.7715,-0.000348
57.268,58.7743,-0.000348
57.285,58.7778,-0.000348
57.300,58.7809,-0.000348
57.316,58.7845,-0.000348
57.332,58.7882,-0.000348
57.348,58.7922,-0.000348
57.364,58.7962,-0.000348
57.380,58.8005,-0.000489
57.397,58.8053,-0.000489
57.413,58.8107,-0.000489
57.433,58.8166,-0.000489
57.449,58.8213,-0.000489
57.481,58.8327,-0.000489
57.511,58.8433,-0.000489
57.527,58.8492,-0.000489
57.542,58.8556,-0.000489
57.572,58.8676,-0.000489
57.588,58.8744,-0.000489
57.604,58.8814,-0.000489
57.620,58.8887,-0.000593
57.636,58.8960,-0.000593
57.652,58.9038,-0.000593
57.668,58.9118,-0.000593
57.685,58.9201,-0.000593
57.709,58.9323,-0.000593
57.725,58.9413,-0.000593
57.741,58.9496,-0.000593
57.757,58.9584,-0.000593
57.773,58.9681,-0.000593
57.789,58.9767,-0.000593
57.805,58.9863,-0.000593
57.821,58.9961,-0.000593
57.839,59.0077,-0.000593
57.866,59.0249,-0.000499
57.885,59.0368,-0.000499
57.901,59.0477,-0.000499
57.917,59.0581,-0.000499
57.934,59.0695,-0.000499
57.950,59.0810,-0.000499
57.965,59.0920,-0.000499
57.981,59.1034,-0.000499
57.997,59.1152,-0.000499
58.014,59.1282,-0.000499
58.037,59.1458,-0.000499
58.067,59.1690,-0.000499
58.098,59.1951,-0.000499
58.114,59.2074,-0.000471
58.129,59.2201,-0.000471
58.160,59.2467,-0.000471
58.175,59.2598,-0.000471
58.206,59.2872,-0.000471
58.233,59.3123,-0.000471
58.249,59.3269,-0.000471
58.265,59.3417,-0.000471
58.281,59.3580,-0.000471
58.297,59.3725,-0.000471
58.313,59.3875,-0.000471
58.329,59.4040,-0.000471
58.345,59.4202,-0.000471
58.361,59.4358,-0.000442
58.377,59.4522,-0.000442
58.396,59.4727,-0.000442
58.415,59.4917,-0.000442
58.439,59.5176,-0.000442
58.457,59.5373,-0.000442
58.474,59.5563,-0.000442
58.501,59.5861,-0.000442
58.522,59.6094,-0.000442
58.548,59.6393,-0.000442
58.569,59.6645,-0.000442
58.585,59.6831,-0.000442
58.601,59.7029,-0.000442
58.618,59.7230,-0.000452
58.641,59.7506,-0.000452
58.657,59.7712,-0.000452
58.687,59.8087,-0.000452
58.718,59.8491,-0.000452
58.749,59.8878,-0.000452
58.770,59.9157,-0.000452
58.786,59.9369,-0.000452
58.801,59.9584,-0.000452
58.818,59.9812,-0.000452
58.836,60.0053,-0.000452
58.854,60.0307,-0.000452
58.873,60.0577,-0.000452
58.904,60.1021,-0.000565
58.935,60.1455,-0.000565
58.966,60.1927,-0.000565
58.982,60.2160,-0.000565
59.013,60.2617,-0.000565
59.044,60.3088,-0.000565
59.075,60.3572,-0.000565
59.091,60.3843,-0.000565
59.122,60.4299,-0.000621
59.139,60.4581,-0.000621
59.168,60.5067,-0.000621
59.186,60.5340,-0.000621
59.202,60.5608,-0.000621
59.217,60.5867,-0.000621
59.233,60.6132,-0.000621
59.250,60.6406,-0.000621
59.266,60.6679,-0.000621
59.282,60.6953,-0.000621
59.297,60.7224,-0.000621
59.325,60.7714,-0.000621
59.350,60.8140,-0.000621
59.370,60.8494,-0.000668
59.388,60.8821,-0.000668
59.405,60.9125,-0.000668
59.421,60.9408,-0.000668
59.436,60.9694,-0.000668
59.453,61.0017,-0.000668
59.479,61.0495,-0.000668
59.501,61.0889,-0.000668
59.516,61.1196,-0.000668
59.532,61.1499,-0.000668
59.549,61.1800,-0.000668
59.564,61.2103,-0.000668
59.581,61.2420,-0.000668
59.597,61.2737,-0.000668
59.612,61.3035,-0.000753
59.628,61.3352,-0.000753
59.645,61.3685,-0.000753
59.660,61.3987,-0.000753
59.676,61.4310,-0.000753
59.692,61.4635,-0.000753
59.708,61.4976,-0.000753
59.724,61.5290,-0.000753
59.740,61.5615,-0.000753
59.756,61.5952,-0.000753
59.772,61.6285,-0.000753
59.789,61.6626,-0.000753
59.804,61.6967,-0.000753
59.822,61.7332,-0.000753
59.852,61.7965,-0.000753
59.882,61.8613,-0.000810
59.899,61.8943,-0.000810
59.915,61.9280,-0.000810
59.930,61.9600,-0.000810
59.947,61.9934,-0.000810
59.963,62.0261,-0.000810
59.978,62.0571,-0.000810
59.994,62.0894,-0.000810
60.013,62.1273,-0.000810
60.038,62.1783,-0.000810
60.058,62.2170,-0.000810
60.075,62.2486,-0.000810
60.091,62.2792,-0.000810
60.106,62.3091,-0.000744
60.122,62.3399,-0.000744
60.139,62.3726,-0.000744
60.162,62.4172,-0.000744
60.178,62.4449,-0.000744
60.193,62.4737,-0.000744
60.224,62.5324,-0.000744
60.254,62.5857,-0.000744
60.270,62.6157,-0.000744
60.300,62.6685,-0.000744
60.316,62.6971,-0.000744
60.347,62.7510,-0.000697
60.362,62.7781,-0.000697
60.379,62.8061,-0.000697
60.394,62.8313,-0.000697
60.410,62.8588,-0.000697
60.439,62.9085,-0.000697
60.455,62.9346,-0.000697
60.471,62.9606,-0.000697
60.487,62.9868,-0.000697
60.504,63.0149,-0.000697
60.533,63.0618,-0.000697
60.551,63.0894,-0.000697
60.574,63.1256,-0.000697
60.595,63.1601,-0.000697
60.615,63.1897,-0.000668
60.632,63.2155,-0.000668
60.647,63.2389,-0.000668
60.663,63.2639,-0.000668
60.679,63.2875,-0.000668
60.695,63.3110,-0.000668
60.711,63.3333,-0.000668
60.727,63.3566,-0.000668
60.743,63.3798,-0.000668
60.759,63.4039,-0.000668
60.775,63.4257,-0.000668
60.791,63.4487,-0.000668
60.807,63.4706,-0.000668
60.823,63.4929,-0.000668
60.839,63.5155,-0.000527
60.855,63.5367,-0.000527
60.871,63.5589,-0.000527
60.888,63.5805,-0.000527
60.903,63.6007,-0.000527
60.919,63.6218,-0.000527
60.942,63.6530,-0.000527
60.965,63.6816,-0.000527
60.981,63.7020,-0.000527
60.997,63.7214,-0.000527
61.013,63.7413,-0.000527
61.029,63.7609,-0.000527
61.045,63.7802,-0.000527
61.061,63.8006,-0.000527
61.077,63.8194,-0.000527
61.093,63.8376,-0.000452
61.109,63.8566,-0.000452
61.125,63.8757,-0.000452
61.141,63.8932,-0.000452
61.157,63.9115,-0.000452
61.173,63.9295,-0.000452
61.189,63.9474,-0.000452
61.205,63.9645,-0.000452
61.221,63.9816,-0.000452
61.237,63.9993,-0.000452
61.253,64.0167,-0.000452
61.269,64.0331,-0.000452
61.285,64.0489,-0.000452
61.301,64.0667,-0.000452
61.322,64.0875,-0.000452
61.338,64.1032,-0.000452
61.367,64.1317,-0.000433
61.382,64.1463,-0.000433
61.398,64.1614,-0.000433
61.414,64.1763,-0.000433
61.432,64.1932,-0.000433
61.462,64.2200,-0.000433
61.491,64.2460,-0.000433
61.507,64.2600,-0.000433
61.522,64.2728,-0.000433
61.539,64.2866,-0.000433
61.556,64.3008,-0.000433
61.574,64.3166,-0.000433
61.603,64.3385,-0.000424
61.619,64.3508,-0.000424
61.635,64.3632,-0.000424
61.650,64.3755,-0.000424
61.667,64.3880,-0.000424
61.683,64.3994,-0.000424
61.699,64.4111,-0.000424
61.714,64.4221,-0.000424
61.731,64.4332,-0.000424
61.747,64.4446,-0.000424
61.763,64.4554,-0.000424
61.778,64.4654,-0.000424
61.795,64.4759,-0.000424
61.811,64.4864,-0.000424
61.826,64.4960,-0.000424
61.842,64.5060,-0.000452
61.858,64.5156,-0.000452
61.876,64.5257,-0.000452
61.891,64.5346,-0.000452
61.906,64.5433,-0.000452
61.922,64.5521,-0.000452
61.938,64.5608,-0.000452
61.954,64.5693,-0.000452
61.970,64.5775,-0.000452
61.986,64.5856,-0.000452
62.003,64.5939,-0.000452
62.018,64.6012,-0.000452
62.048,64.6153,-0.000452
62.064,64.6222,-0.000452
62.081,64.6292,-0.000452
62.096,64.6359,-0.000508
62.113,64.6428,-0.000508
62.129,64.6491,-0.000508
62.144,64.6549,-0.000508
62.161,64.6611,-0.000508
62.177,64.6672,-0.000508
62.192,64.6724,-0.000508
62.208,64.6777,-0.000508
62.225,64.6831,-0.000508
62.241,64.6879,-0.000508
62.256,64.6927,-0.000508
62.272,64.6973,-0.000508
62.289,64.7018,-0.000508
62.305,64.7061,-0.000508
62.321,64.7101,-0.000508
62.336,64.7138,-0.000508
62.353,64.7178,-0.000508
62.369,64.7210,-0.000508
62.384,64.7242,-0.000593
62.400,64.7273,-0.000593
62.417,64.7303,-0.000593
62.437,64.7335,-0.000593
62.468,64.7382,-0.000593
62.485,64.7402,-0.000593
62.515,64.7437,-0.000593
62.531,64.7451,-0.000593
62.561,64.7473,-0.000593
62.591,64.7489,-0.000593
62.608,64.7495,-0.000593
62.624,64.7499,-0.000697
62.639,64.7500,-0.000697
62.657,64.7500,-0.000697
62.684,64.7500,-0.000697
62.703,64.7500,-0.000697
62.720,64.7500,-0.000697
62.735,64.7500,-0.000697
62.751,64.7500,-0.000697
62.768,64.7500,-0.000697
62.784,64.7500,-0.000697
62.803,64.7500,-0.000697
62.825,64.7500,-0.000697
62.841,64.7500,-0.000697
62.857,64.7500,-0.000697
62.888,64.7500,-0.000744
62.919,64.7500,-0.000744
62.949,64.7500,-0.000744
62.979,64.7500,-0.000744
63.011,64.7500,-0.000744
63.027,64.7500,-0.000744
63.058,64.7500,-0.000744
63.088,64.7500,-0.000744
63.104,64.7500,-0.000744
63.120,64.7500,-0.000744
63.147,64.7500,-0.000715
63.165,64.7500,-0.000715
63.180,64.7500,-0.000715
63.195,64.7500,-0.000715
63.211,64.7500,-0.000715
63.228,64.7500,-0.000715
63.244,64.7500,-0.000715
63.259,64.7500,-0.000715
63.276,64.7500,-0.000715
63.292,64.7500,-0.000715
63.307,64.7500,-0.000715
63.323,64.7500,-0.000715
63.345,64.7500,-0.000715
63.361,64.7500,-0.000715
63.382,64.7500,-0.000715
63.413,64.7500,-0.000762
63.435,64.7500,-0.000762
63.451,64.7500,-0.000762
63.468,64.7500,-0.000762
63.484,64.7500,-0.000762
63.506,64.7500,-0.000762
63.537,64.7500,-0.000762
63.567,64.7500,-0.000762
63.599,64.7500,-0.000762
63.629,64.7500,-0.000753
63.661,64.7500,-0.000753
63.691,64.7500,-0.000753
63.708,64.7500,-0.000753
63.737,64.7500,-0.000753
63.755,64.7500,-0.000753
63.776,64.7500,-0.000753
63.801,64.7500,-0.000753
63.819,64.7500,-0.000753
63.835,64.7500,-0.000753
63.851,64.7500,-0.000753
63.867,64.7500,-0.000715
63.883,64.7500,-0.000715
63.899,64.7500,-0.000715
63.915,64.7500,-0.000715
63.931,64.7500,-0.000715
63.947,64.7500,-0.000715
63.963,64.7500,-0.000715
63.979,64.7500,-0.000715
63.995,64.7500,-0.000715
64.011,64.7500,-0.000715
64.027,64.7500,-0.000715
64.043,64.7500,-0.000715
64.059,64.7500,-0.000715
64.075,64.7500,-0.000715
64.091,64.7500,-0.000715
64.107,64.7500,-0.000762
64.123,64.7500,-0.000762
64.139,64.7500,-0.000762
64.155,64.7500,-0.000762
64.171,64.7500,-0.000762
64.187,64.7500,-0.000762
64.203,64.7500,-0.000762
64.226,64.7500,-0.000762
64.242,64.7500,-0.000762
64.258,64.7500,-0.000762
64.274,64.7500,-0.000762
64.290,64.7500,-0.000762
64.306,64.7500,-0.000762
64.322,64.7500,-0.000762
64.338,64.7500,-0.000762
64.356,64.7500,-0.000762
64.373,64.7500,-0.000762
64.403,64.7500,-0.000762
64.434,64.7500,-0.000762
64.450,64.7500,-0.000762
64.466,64.7500,-0.000762
64.482,64.7500,-0.000762
64.498,64.7500,-0.000762
64.514,64.7500,-0.000762
64.531,64.7500,-0.000762
64.558,64.7500,-0.000762
64.578,64.7500,-0.000762
64.594,64.7500,-0.000762
64.610,64.7500,-0.000762
64.626,64.7500,-0.000734
64.642,64.7500,-0.000734
64.658,64.7500,-0.000734
64.674,64.7500,-0.000734
64.690,64.7500,-0.000734
64.706,64.7500,-0.000734
64.722,64.7500,-0.000734
64.738,64.7500,-0.000734
64.754,64.7500,-0.000734
64.776,64.7500,-0.000734
64.792,64.7500,-0.000734
64.808,64.7500,-0.000734
64.824,64.7500,-0.000734
64.842,64.7500,-0.000734
64.867,64.7500,-0.000753
64.888,64.7500,-0.000753
64.904,64.7500,-0.000753
64.921,64.7500,-0.000753
64.944,64.7500,-0.000753
64.975,64.7500,-0.000753
65.006,64.7500,-0.000753
65.037,64.7500,-0.000753
65.068,64.7500,-0.000753
65.100,64.7500,-0.000753
65.130,64.7500,-0.000753
65.160,64.7500,-0.000753
65.177,64.7500,-0.000753
65.207,64.7500,-0.000753
65.228,64.7500,-0.000753
65.253,64.7500,-0.000753
65.271,64.7500,-0.000753
65.288,64.7500,-0.000753
65.304,64.7500,-0.000753
65.328,64.7500,-0.000753
65.344,64.7500,-0.000753
65.360,64.7500,-0.000697
65.376,64.7500,-0.000697
65.392,64.7500,-0.000697
65.407,64.7500,-0.000697
65.425,64.7500,-0.000697
65.454,64.7500,-0.000697
65.474,64.7500,-0.000697
65.501,64.7500,-0.000697
65.520,64.7500,-0.000697
65.536,64.7500,-0.000697
65.551,64.7500,-0.000697
65.568,64.7500,-0.000697
65.584,64.7500,-0.000697
65.599,64.7500,-0.000697
65.616,64.7500,-0.000687
65.642,64.7500,-0.000687
65.663,64.7500,-0.000687
65.679,64.7500,-0.000687
65.695,64.7500,-0.000687
65.712,64.7500,-0.000687
65.727,64.7500,-0.000687
65.744,64.7500,-0.000687
65.759,64.7500,-0.000687
65.775,64.7500,-0.000687
65.791,64.7500,-0.000687
65.808,64.7500,-0.000687
65.824,64.7500,-0.000687
65.854,64.7500,-0.000687
65.869,64.7500,-0.000687
65.886,64.7500,-0.000725
65.902,64.7500,-0.000725
65.917,64.7500,-0.000725
65.933,64.7500,-0.000725
65.950,64.7500,-0.000725
65.967,64.7500,-0.000725
65.997,64.7500,-0.000725
66.014,64.7500,-0.000725
66.030,64.7500,-0.000725
66.045,64.7500,-0.000725
66.061,64.7500,-0.000725
66.079,64.7500,-0.000725
66.106,64.7500,-0.000753
66.125,64.7500,-0.000753
66.142,64.7500,-0.000753
66.157,64.7500,-0.000753
66.175,64.7500,-0.000753
66.198,64.7500,-0.000753
66.215,64.7500,-0.000753
66.246,64.7500,-0.000753
66.277,64.7500,-0.000753
66.307,64.7500,-0.000753
66.337,64.7500,-0.000753
66.368,64.7500,-0.000753
66.389,64.7500,-0.000706
66.405,64.7500,-0.000706
66.422,64.7500,-0.000706
66.437,64.7500,-0.000706
66.453,64.7500,-0.000706
66.469,64.7500,-0.000706
66.485,64.7500,-0.000706
66.502,64.7500,-0.000706
66.524,64.7500,-0.000706
66.554,64.7500,-0.000706
66.584,64.7500,-0.000706
66.614,64.7500,-0.000650
66.632,64.7500,-0.000650
66.660,64.7500,-0.000650
66.677,64.7500,-0.000650
66.694,64.7500,-0.000650
66.710,64.7500,-0.000650
66.737,64.7500,-0.000650
66.760,64.7500,-0.000650
66.775,64.7500,-0.000650
66.799,64.7500,-0.000650
66.830,64.7500,-0.000650
66.861,64.7500,-0.000706
66.876,64.7500,-0.000706
66.908,64.7500,-0.000706
66.938,64.7500,-0.000706
66.969,64.7500,-0.000706
66.999,64.7500,-0.000706
67.015,64.7500,-0.000706
67.031,64.7500,-0.000706
67.062,64.7500,-0.000706
67.079,64.7500,-0.000706
67.109,64.7500,-0.000753
67.126,64.7500,-0.000753
67.156,64.7500,-0.000753
67.173,64.7500,-0.000753
67.189,64.7500,-0.000753
67.205,64.7500,-0.000753
67.221,64.7500,-0.000753
67.237,64.7500,-0.000753
67.253,64.7500,-0.000753
67.269,64.7500,-0.000753
67.285,64.7500,-0.000753
67.301,64.7500,-0.000753
67.317,64.7500,-0.000753
67.333,64.7500,-0.000753
67.349,64.7500,-0.000715
67.365,64.7500,-0.000715
67.382,64.7500,-0.000715
67.400,64.7500,-0.000715
67.416,64.7500,-0.000715
67.447,64.7500,-0.000715
67.477,64.7500,-0.000715
67.494,64.7500,-0.000715
67.509,64.7500,-0.000715
67.525,64.7500,-0.000715
67.541,64.7500,-0.000715
67.557,64.7500,-0.000715
67.573,64.7500,-0.000715
67.589,64.7500,-0.000810
67.605,64.7500,-0.000810
67.621,64.7500,-0.000810
67.637,64.7500,-0.000810
67.653,64.7500,-0.000810
67.669,64.7500,-0.000810
67.686,64.7500,-0.000810
67.701,64.7500,-0.000810
67.717,64.7500,-0.000810
67.732,64.7500,-0.000810
67.748,64.7500,-0.000810
67.764,64.7500,-0.000810
67.781,64.7500,-0.000810
67.797,64.7500,-0.000810
67.813,64.7500,-0.000810
67.829,64.7500,-0.000810
67.845,64.7500,-0.000904
67.861,64.7500,-0.000904
67.876,64.7500,-0.000904
67.892,64.7500,-0.000904
67.912,64.7500,-0.000904
67.938,64.7500,-0.000904
67.971,64.7500,-0.000904
67.988,64.7500,-0.000904
68.003,64.7500,-0.000904
68.019,64.7500,-0.000904
68.036,64.7499,-0.000904
68.051,64.7497,-0.000904
68.067,64.7492,-0.000904
68.083,64.7485,-0.000904
68.102,64.7476,-0.000904
68.125,64.7459,-0.000904
68.141,64.7446,-0.000970
68.156,64.7431,-0.000970
68.187,64.7395,-0.000970
68.218,64.7353,-0.000970
68.249,64.7303,-0.000970
68.265,64.7275,-0.000970
68.296,64.7214,-0.000970
68.326,64.7148,-0.000970
68.358,64.7070,-0.000970
68.373,64.7032,-0.000461
68.388,64.6989,-0.000461
68.419,64.6900,-0.000461
68.436,64.6849,-0.000461
68.451,64.6801,-0.000461
68.468,64.6745,-0.000461
68.483,64.6692,-0.000461
68.499,64.6635,-0.000461
68.529,64.6525,-0.000461
68.545,64.6462,-0.000461
68.561,64.6399,-0.000461
68.591,64.6269,-0.000461
68.609,64.6193,-0.000461
68.624,64.6124,0.002287
68.640,64.6050,0.002287
68.657,64.5971,0.002287
68.672,64.5895,0.002287
68.688,64.5816,0.002287
68.704,64.5735,0.002287
68.721,64.5647,0.002287
68.737,64.5563,0.002287
68.753,64.5476,0.002287
68.768,64.5386,0.002287
68.785,64.5291,0.002287
68.801,64.5201,0.002287
68.817,64.5105,0.002287
68.832,64.5011,0.002287
68.849,64.4908,0.002287
68.864,64.4810,0.002287
68.880,64.4709,0.007700
68.897,64.4601,0.007700
68.913,64.4493,0.007700
68.928,64.4386,0.007700
68.944,64.4274,0.007700
68.960,64.4164,0.007700
68.976,64.4046,0.007700
68.992,64.3931,0.007700
69.008,64.3811,0.007700
69.024,64.3690,0.007700
69.040,64.3570,0.007700
69.056,64.3440,0.007700
69.087,64.3199,0.007700
69.103,64.3062,0.007700
69.119,64.2934,0.014882
69.135,64.2805,0.014882
69.154,64.2635,0.014882
69.170,64.2508,0.014882
69.197,64.2262,0.014882
69.217,64.2092,0.014882
69.244,64.1839,0.014882
69.263,64.1665,0.014882
69.279,64.1508,0.014882
69.295,64.1355,0.014882
69.311,64.1200,0.014882
69.327,64.1044,0.014882
69.344,64.0873,0.014882
69.369,64.0629,0.014882
69.400,64.0302,0.012030
69.430,63.9988,0.012030
69.445,63.9826,0.012030
69.476,63.9491,0.012030
69.507,63.9149,0.012030
69.538,63.8794,0.012030
69.567,63.8454,0.012030
69.585,63.8248,0.012030
69.606,63.7983,0.012030
69.629,63.7721,0.002429
69.648,63.7462,0.002429
69.675,63.7139,0.002429
69.695,63.6894,0.002429
69.711,63.6683,0.002429
69.727,63.6488,0.002429
69.743,63.6277,0.002429
69.759,63.6075,0.002429
69.776,63.5845,0.002429
69.792,63.5633,0.002429
69.807,63.5432,0.002429
69.823,63.5217,0.002429
69.839,63.4983,0.002429
69.854,63.4777,0.002429
69.871,63.4537,-0.000405
69.888,63.4310,-0.000405
69.903,63.4091,-0.000405
69.919,63.3870,-0.000405
69.935,63.3636,-0.000405
69.951,63.3409,-0.000405
69.967,63.3172,-0.000405
69.983,63.2937,-0.000405
70.000,63.2678,-0.000405
70.015,63.2459,-0.000405
70.031,63.2206,-0.000405
70.047,63.1970,-0.000405
70.066,63.1666,-0.000405
70.094,63.1247,-0.000405
70.111,63.0968,-0.000395
70.127,63.0706,-0.000395
70.143,63.0462,-0.000395
70.159,63.0197,-0.000395
70.186,62.9762,-0.000395
70.201,62.9511,-0.000395
70.217,62.9258,-0.000395
70.233,62.8989,-0.000395
70.252,62.8657,-0.000395
70.282,62.8158,-0.000395
70.297,62.7898,-0.000395
70.313,62.7628,-0.000395
70.329,62.7347,-0.000395
70.346,62.7046,-0.000461
70.361,62.6786,-0.000461
70.382,62.6406,-0.000461
70.406,62.5982,-0.000461
70.425,62.5631,-0.000461
70.441,62.5331,-0.000461
70.456,62.5052,-0.000461
70.473,62.4753,-0.000461
70.489,62.4453,-0.000461
70.505,62.4142,-0.000461
70.521,62.3849,-0.000461
70.537,62.3537,-0.000461
70.553,62.3248,-0.000461
70.569,62.2936,-0.000461
70.584,62.2629,-0.000461
70.600,62.2324,-0.000546
70.617,62.1999,-0.000546
70.633,62.1689,-0.000546
70.649,62.1355,-0.000546
70.665,62.1056,-0.000546
70.681,62.0725,-0.000546
70.708,62.0180,-0.000546
70.724,61.9846,-0.000546
70.741,61.9513,-0.000546
70.756,61.9192,-0.000546
70.771,61.8872,-0.000546
70.788,61.8527,-0.000546
70.804,61.8204,-0.000546
70.820,61.7854,-0.000546
70.835,61.7520,-0.000546
70.851,61.7184,-0.000602
70.868,61.6827,-0.000602
70.889,61.6373,-0.000602
70.918,61.5754,-0.000602
70.933,61.5450,-0.000602
70.949,61.5130,-0.000602
70.965,61.4794,-0.000602
70.995,61.4168,-0.000602
71.011,61.3859,-0.000602
71.027,61.3539,-0.000602
71.051,61.3060,-0.000602
71.075,61.2578,-0.000602
71.091,61.2274,-0.000602
71.108,61.1947,-0.000715
71.123,61.1651,-0.000715
71.140,61.1330,-0.000715
71.155,61.1036,-0.000715
71.172,61.0716,-0.000715
71.188,61.0416,-0.000715
71.203,61.0131,-0.000715
71.233,60.9565,-0.000715
71.248,60.9295,-0.000715
71.265,60.8996,-0.000715
71.281,60.8703,-0.000715
71.297,60.8396,-0.000715
71.313,60.8123,-0.000715
71.328,60.7853,-0.000715
71.345,60.7562,-0.000715
71.361,60.7277,-0.000715
71.377,60.6996,-0.000715
71.392,60.6731,-0.000772
71.408,60.6454,-0.000772
71.425,60.6174,-0.000772
71.441,60.5899,-0.000772
71.456,60.5640,-0.000772
71.473,60.5352,-0.000772
71.489,60.5095,-0.000772
71.505,60.4837,-0.000772
71.520,60.4581,-0.000772
71.536,60.4320,-0.000772
71.553,60.4051,-0.000772
71.568,60.3803,-0.000772
71.584,60.3554,-0.000772
71.602,60.3275,-0.000772
71.631,60.2813,-0.000687
71.648,60.2548,-0.000687
71.664,60.2309,-0.000687
71.681,60.2049,-0.000687
71.710,60.1617,-0.000687
71.729,60.1335,-0.000687
71.745,60.1107,-0.000687
71.760,60.0880,-0.000687
71.787,60.0495,-0.000687
71.804,60.0254,-0.000687
71.819,60.0039,-0.000687
71.835,59.9818,-0.000687
71.853,59.9557,-0.000687
71.878,59.9227,-0.000584
71.900,59.8935,-0.000584
71.916,59.8714,-0.000584
71.931,59.8509,-0.000584
71.947,59.8308,-0.000584
71.963,59.8098,-0.000584
71.985,59.7808,-0.000584
72.001,59.7609,-0.000584
72.016,59.7420,-0.000584
72.048,59.7020,-0.000584
72.063,59.6834,-0.000584
72.080,59.6638,-0.000584
72.111,59.6254,-0.000584
72.142,59.5895,-0.000584
72.172,59.5553,-0.000527
72.188,59.5375,-0.000527
72.218,59.5040,-0.000527
72.235,59.4845,-0.000527
72.251,59.4680,-0.000527
72.268,59.4499,-0.000527
72.283,59.4338,-0.000527
72.299,59.4158,-0.000527
72.315,59.4004,-0.000527
72.344,59.3706,-0.000527
72.360,59.3549,-0.000527
72.376,59.3388,-0.000508
72.392,59.3235,-0.000508
72.408,59.3075,-0.000508
72.425,59.2918,-0.000508
72.440,59.2776,-0.000508
72.456,59.2630,-0.000508
72.472,59.2482,-0.000508
72.488,59.2338,-0.000508
72.504,59.2196,-0.000508
72.521,59.2042,-0.000508
72.540,59.1877,-0.000508
72.561,59.1697,-0.000508
72.588,59.1474,-0.000508
72.604,59.1343,-0.000508
72.634,59.1102,-0.000471
72.665,59.0861,-0.000471
72.696,59.0634,-0.000471
72.713,59.0504,-0.000471
72.743,59.0290,-0.000471
72.760,59.0173,-0.000471
72.777,59.0053,-0.000471
72.805,58.9867,-0.000471
72.824,58.9744,-0.000471
72.840,58.9637,-0.000471
72.856,58.9544,-0.000471
72.872,58.9440,-0.000471
72.898,58.9284,-0.000471
72.914,58.9193,-0.000471
72.930,58.9103,-0.000471
72.946,58.9013,-0.000471
72.962,58.8924,-0.000471
72.978,58.8838,-0.000471
72.994,58.8759,-0.000471
73.011,58.8671,-0.000471
73.032,58.8569,-0.000471
73.053,58.8463,-0.000471
73.074,58.8371,-0.000471
73.090,58.8296,-0.000471
73.106,58.8230,-0.000452
73.122,58.8161,-0.000452
73.139,58.8091,-0.000452
73.155,58.8027,-0.000452
73.177,58.7942,-0.000452
73.207,58.7828,-0.000452
73.223,58.7773,-0.000452
73.239,58.7721,-0.000452
73.269,58.7626,-0.000452
73.285,58.7575,-0.000452
73.316,58.7487,-0.000452
73.347,58.7407,-0.000452
73.379,58.7334,-0.000424
73.395,58.7296,-0.000424
73.424,58.7239,-0.000424
73.455,58.7185,-0.000424
73.471,58.7159,-0.000424
73.486,58.7136,-0.000424
73.502,58.7113,-0.000424
73.522,58.7090,-0.000424
73.548,58.7061,-0.000424
73.567,58.7045,-0.000424
73.583,58.7033,-0.000424
73.598,58.7023,-0.000424
73.615,58.7014,-0.000414
73.631,58.7008,-0.000414
73.647,58.7003,-0.000414
73.663,58.7000,-0.000414
73.678,58.7000,-0.000414
73.695,58.7000,-0.000414
73.711,58.7000,-0.000414
73.726,58.7000,-0.000414
73.742,58.7000,-0.000414
73.759,58.7000,-0.000414
73.775,58.7000,-0.000414
73.790,58.7003,-0.000414
73.806,58.7008,-0.000414
73.824,58.7014,-0.000414
73.855,58.7033,-0.000377
73.870,58.7044,-0.000377
73.887,58.7059,-0.000377
73.902,58.7074,-0.000377
73.918,58.7091,-0.000377
73.936,58.7113,-0.000377
73.956,58.7142,-0.000377
73.981,58.7180,-0.000377
74.008,58.7229,-0.000377
74.027,58.7265,-0.000377
74.043,58.7298,-0.000377
74.059,58.7333,-0.000377
74.076,58.7370,-0.000377
74.092,58.7411,-0.000377
74.107,58.7448,-0.000377
74.124,58.7494,-0.000480
74.140,58.7537,-0.000480
74.155,58.7585,-0.000480
74.171,58.7630,-0.000480
74.187,58.7681,-0.000480
74.204,58.7735,-0.000480
74.219,58.7788,-0.000480
74.235,58.7844,-0.000480
74.251,58.7902,-0.000480
74.267,58.7963,-0.000480
74.283,58.8025,-0.000480
74.300,58.8089,-0.000480
74.315,58.8155,-0.000480
74.331,58.8222,-0.000480
74.347,58.8293,-0.000480
74.364,58.8367,-0.000565
74.379,58.8437,-0.000565
74.404,58.8558,-0.000565
74.426,58.8665,-0.000565
74.443,58.8750,-0.000565
74.460,58.8838,-0.000565
74.476,58.8923,-0.000565
74.492,58.9008,-0.000565
74.521,58.9172,-0.000565
74.536,58.9261,-0.000565
74.552,58.9353,-0.000565
74.568,58.9449,-0.000565
74.584,58.9548,-0.000565
74.600,58.9648,-0.000565
74.615,58.9749,-0.000489
74.631,58.9852,-0.000489
74.648,58.9965,-0.000489
74.676,59.0153,-0.000489
74.695,59.0288,-0.000489
74.711,59.0405,-0.000489
74.728,59.0521,-0.000489
74.743,59.0636,-0.000489
74.759,59.0758,-0.000489
74.776,59.0882,-0.000489
74.792,59.1003,-0.000489
74.807,59.1124,-0.000489
74.823,59.1256,-0.000489
74.839,59.1383,-0.000489
74.855,59.1515,-0.000489
74.871,59.1646,-0.000442
74.887,59.1780,-0.000442
74.903,59.1923,-0.000442
74.919,59.2057,-0.000442
74.935,59.2196,-0.000442
74.951,59.2340,-0.000442
74.967,59.2485,-0.000442
74.984,59.2640,-0.000442
74.999,59.2785,-0.000442
75.015,59.2932,-0.000442
75.031,59.3086,-0.000442
75.047,59.3241,-0.000442
75.063,59.3394,-0.000442
75.079,59.3555,-0.000442
75.095,59.3719,-0.000442
75.111,59.3874,-0.000414
75.127,59.4052,-0.000414
75.144,59.4221,-0.000414
75.159,59.4379,-0.000414
75.175,59.4542,-0.000414
75.191,59.4720,-0.000414
75.207,59.4898,-0.000414
75.223,59.5073,-0.000414
75.239,59.5247,-0.000414
75.255,59.5420,-0.000414
75.272,59.5620,-0.000414
75.287,59.5794,-0.000414
75.303,59.5971,-0.000414
75.319,59.6166,-0.000414
75.335,59.6358,-0.000414
75.351,59.6555,-0.000414
75.367,59.6742,-0.000433
75.383,59.6933,-0.000433
75.399,59.7127,-0.000433
75.415,59.7324,-0.000433
75.431,59.7528,-0.000433
75.447,59.7728,-0.000433
75.463,59.7937,-0.000433
75.479,59.8140,-0.000433
75.495,59.8349,-0.000433
75.512,59.8578,-0.000433
75.530,59.8817,-0.000433
75.560,59.9233,-0.000433
75.576,59.9445,-0.000433
75.592,59.9673,-0.000433
75.623,60.0094,-0.000480
75.641,60.0343,-0.000480
75.670,60.0766,-0.000480
75.687,60.1009,-0.000480
75.705,60.1283,-0.000480
75.732,60.1675,-0.000480
75.751,60.1958,-0.000480
75.767,60.2206,-0.000480
75.783,60.2445,-0.000480
75.799,60.2682,-0.000480
75.816,60.2949,-0.000480
75.831,60.3181,-0.000480
75.848,60.3452,-0.000480
75.863,60.3699,-0.000499
75.879,60.3961,-0.000499
75.895,60.4209,-0.000499
75.911,60.4458,-0.000499
75.927,60.4713,-0.000499
75.943,60.4980,-0.000499
75.959,60.5260,-0.000499
75.975,60.5512,-0.000499
75.991,60.5781,-0.000499
76.007,60.6059,-0.000499
76.023,60.6331,-0.000499
76.039,60.6599,-0.000499
76.055,60.6874,-0.000499
76.070,60.7153,-0.000499
76.087,60.7443,-0.000499
76.103,60.7726,-0.000593
76.118,60.7996,-0.000593
76.136,60.8309,-0.000593
76.160,60.8736,-0.000593
76.176,60.9036,-0.000593
76.192,60.9323,-0.000593
76.208,60.9622,-0.000593
76.224,60.9919,-0.000593
76.240,61.0218,-0.000593
76.256,61.0515,-0.000593
76.272,61.0818,-0.000593
76.288,61.1130,-0.000593
76.304,61.1426,-0.000593
76.320,61.1741,-0.000593
76.336,61.2045,-0.000593
76.352,61.2356,-0.000593
76.367,61.2675,-0.000725
76.384,61.2995,-0.000725
76.400,61.3315,-0.000725
76.415,61.3630,-0.000725
76.431,61.3947,-0.000725
76.448,61.4282,-0.000725
76.464,61.4608,-0.000725
76.479,61.4928,-0.000725
76.495,61.5259,-0.000725
76.512,61.5592,-0.000725
76.528,61.5952,-0.000725
76.544,61.6271,-0.000725
76.559,61.6595,-0.000725
76.575,61.6935,-0.000725
76.592,61.7287,-0.000725
76.608,61.7623,-0.000725
76.624,61.7958,-0.000828
76.640,61.8293,-0.000828
76.656,61.8629,-0.000828
76.671,61.8945,-0.000828
76.688,61.9283,-0.000828
76.710,61.9733,-0.000828
76.725,62.0049,-0.000828
76.741,62.0368,-0.000828
76.758,62.0714,-0.000828
76.776,62.1063,-0.000828
76.792,62.1383,-0.000828
76.817,62.1873,-0.000828
76.838,62.2271,-0.000828
76.853,62.2575,-0.000744
76.870,62.2882,-0.000744
76.886,62.3202,-0.000744
76.902,62.3498,-0.000744
76.917,62.3785,-0.000744
76.934,62.4088,-0.000744
76.950,62.4391,-0.000744
76.965,62.4678,-0.000744
76.981,62.4973,-0.000744
76.998,62.5265,-0.000744
77.014,62.5558,-0.000744
77.030,62.5843,-0.000744
77.045,62.6124,-0.000744
77.061,62.6405,-0.000744
77.077,62.6687,-0.000744
77.094,62.6981,-0.000602
77.109,62.7253,-0.000602
77.125,62.7519,-0.000602
77.142,62.7817,-0.000602
77.173,62.8334,-0.000602
77.190,62.8621,-0.000602
77.206,62.8884,-0.000602
77.235,62.9353,-0.000602
77.254,62.9665,-0.000602
77.269,62.9918,-0.000602
77.285,63.0171,-0.000602
77.301,63.0424,-0.000602
77.317,63.0689,-0.000602
77.334,63.0944,-0.000602
77.350,63.1192,-0.000659
77.366,63.1429,-0.000659
77.390,63.1798,-0.000659
77.420,63.2271,-0.000659
77.436,63.2495,-0.000659
77.467,63.2956,-0.000659
77.498,63.3403,-0.000659
77.529,63.3842,-0.000659
77.559,63.4261,-0.000659
77.575,63.4489,-0.000659
77.605,63.4893,-0.000574
77.622,63.5120,-0.000574
77.652,63.5518,-0.000574
77.669,63.5744,-0.000574
77.685,63.5950,-0.000574
77.701,63.6155,-0.000574
77.717,63.6361,-0.000574
77.733,63.6560,-0.000574
77.749,63.6764,-0.000574
77.765,63.6960,-0.000574
77.784,63.7198,-0.000574
77.807,63.7477,-0.000574
77.837,63.7836,-0.000574
77.868,63.8187,-0.000452
77.899,63.8545,-0.000452
77.929,63.8879,-0.000452
77.960,63.9230,-0.000452
77.976,63.9392,-0.000452
77.993,63.9573,-0.000452
78.023,63.9895,-0.000452
78.039,64.0048,-0.000452
78.054,64.0209,-0.000452
78.069,64.0355,-0.000452
78.085,64.0515,-0.000452
78.101,64.0675,-0.000442
78.118,64.0839,-0.000442
78.133,64.0988,-0.000442
78.149,64.1134,-0.000442
78.165,64.1287,-0.000442
78.181,64.1434,-0.000442
78.197,64.1582,-0.000442
78.213,64.1720,-0.000442
78.229,64.1862,-0.000442
78.246,64.2015,-0.000442
78.262,64.2152,-0.000442
78.277,64.2283,-0.000442
78.302,64.2489,-0.000442
78.318,64.2620,-0.000442
78.334,64.2749,-0.000442
78.350,64.2873,-0.000424
78.367,64.3009,-0.000424
78.382,64.3126,-0.000424
78.398,64.3244,-0.000424
78.414,64.3364,-0.000424
78.430,64.3491,-0.000424
78.446,64.3600,-0.000424
78.462,64.3711,-0.000424
78.478,64.3823,-0.000424
78.495,64.3941,-0.000424
78.520,64.4111,-0.000424
78.551,64.4310,-0.000424
78.585,64.4526,-0.000424
78.606,64.4648,-0.000471
78.622,64.4743,-0.000471
78.638,64.4839,-0.000471
78.655,64.4932,-0.000471
78.670,64.5015,-0.000471
78.686,64.5104,-0.000471
78.702,64.5186,-0.000471
78.718,64.5269,-0.000471
78.734,64.5355,-0.000471
78.750,64.5433,-0.000471
78.766,64.5506,-0.000471
78.782,64.5585,-0.000471
78.801,64.5673,-0.000471
78.816,64.5739,-0.000471
78.841,64.5841,-0.000471
78.862,64.5929,-0.000546
78.878,64.5991,-0.000546
78.894,64.6053,-0.000546
78.910,64.6112,-0.000546
78.926,64.6172,-0.000546
78.942,64.6227,-0.000546
78.958,64.6279,-0.000546
78.974,64.6333,-0.000546
78.990,64.6384,-0.000546
79.006,64.6430,-0.000546
79.022,64.6475,-0.000546
79.038,64.6519,-0.000546
79.054,64.6561,-0.000546
79.070,64.6604,-0.000546
79.086,64.6642,-0.000546
79.102,64.6677,-0.000602
79.118,64.6712,-0.000602
79.134,64.6745,-0.000602
79.158,64.6790,-0.000602
79.181,64.6829,-0.000602
79.197,64.6854,-0.000602
79.214,64.6878,-0.000602
79.231,64.6899,-0.000602
79.246,64.6917,-0.000602
79.261,64.6934,-0.000602
79.278,64.6950,-0.000602
79.295,64.6963,-0.000602
79.322,64.6981,-0.000602
79.342,64.6991,-0.000602
79.358,64.6996,-0.000602
79.373,64.6999,-0.000602
79.390,64.7001,-0.000687
79.415,64.7001,-0.000687
79.430,64.7001,-0.000687
79.447,64.7001,-0.000687
79.462,64.7001,-0.000687
79.485,64.7001,-0.000687
79.506,64.7001,-0.000687
79.526,64.7001,-0.000687
79.543,64.7001,-0.000687
79.559,64.7001,-0.000687
79.575,64.7001,-0.000687
79.590,64.7001,-0.000687
79.607,64.7001,-0.000687
79.623,64.7001,-0.000687
79.638,64.7001,-0.000734
79.654,64.7001,-0.000734
79.671,64.7001,-0.000734
79.692,64.7001,-0.000734
79.708,64.7001,-0.000734
79.739,64.7001,-0.000734
79.769,64.7001,-0.000734
79.800,64.7001,-0.000734
79.830,64.7001,-0.000734
79.848,64.7001,-0.000734
79.878,64.7001,-0.000725
79.894,64.7001,-0.000725
79.910,64.7001,-0.000725
79.928,64.7001,-0.000725
79.955,64.7001,-0.000725
79.975,64.7001,-0.000725
80.002,64.7001,-0.000725
80.022,64.7001,-0.000725
80.041,64.7001,-0.000725
80.064,64.7001,-0.000725
80.095,64.7001,-0.000725
80.111,64.7001,-0.000725
80.141,64.7001,-0.000697
80.157,64.7001,-0.000697
80.187,64.7001,-0.000697
80.218,64.7001,-0.000697
80.233,64.7001,-0.000697
80.249,64.7001,-0.000697
80.265,64.7001,-0.000697
80.296,64.7001,-0.000697
80.326,64.7001,-0.000697
80.344,64.7001,-0.000697
80.373,64.7001,-0.000687
80.390,64.7001,-0.000687
80.407,64.7001,-0.000687
80.423,64.7001,-0.000687
80.438,64.7001,-0.000687
80.455,64.7001,-0.000687
80.470,64.7001,-0.000687
80.486,64.7001,-0.000687
80.503,64.7001,-0.000687
80.519,64.7001,-0.000687
80.535,64.7001,-0.000687
80.551,64.7001,-0.000687
80.566,64.7001,-0.000687
80.583,64.7001,-0.000687
80.599,64.7001,-0.000687
80.620,64.7001,-0.000687
80.650,64.7001,-0.000659
80.666,64.7001,-0.000659
80.681,64.7001,-0.000659
80.697,64.7001,-0.000659
80.713,64.7001,-0.000659
80.729,64.7001,-0.000659
80.759,64.7001,-0.000659
80.776,64.7001,-0.000659
80.806,64.7001,-0.000659
80.822,64.7001,-0.000659
80.839,64.7001,-0.000659
80.854,64.7001,-0.000659
80.870,64.7001,-0.000706
80.886,64.7001,-0.000706
80.902,64.7001,-0.000706
80.918,64.7001,-0.000706
80.934,64.7001,-0.000706
80.950,64.7001,-0.000706
80.966,64.7001,-0.000706
80.982,64.7001,-0.000706
80.998,64.7001,-0.000706
81.026,64.7001,-0.000706
81.043,64.7001,-0.000706
81.058,64.7001,-0.000706
81.074,64.7001,-0.000706
81.092,64.7001,-0.000706
81.107,64.7001,-0.000706
81.131,64.7001,-0.000706
81.147,64.7001,-0.000744
81.178,64.7001,-0.000744
81.211,64.7001,-0.000744
81.241,64.7001,-0.000744
81.256,64.7001,-0.000744
81.288,64.7001,-0.000744
81.318,64.7001,-0.000744
81.334,64.7001,-0.000744
81.350,64.7001,-0.000687
81.381,64.7001,-0.000687
81.412,64.7001,-0.000687
81.428,64.7001,-0.000687
81.459,64.7001,-0.000687
81.491,64.7001,-0.000687
81.507,64.7001,-0.000687
81.522,64.7001,-0.000687
81.538,64.7001,-0.000687
81.568,64.7001,-0.000687
81.584,64.7001,-0.000687
81.600,64.7001,-0.000697
81.616,64.7001,-0.000697
81.632,64.7001,-0.000697
81.648,64.7001,-0.000697
81.664,64.7001,-0.000697
81.680,64.7001,-0.000697
81.696,64.7001,-0.000697
81.712,64.7001,-0.000697
81.729,64.7001,-0.000697
81.744,64.7001,-0.000697
81.760,64.7001,-0.000697
81.776,64.7001,-0.000697
81.792,64.7001,-0.000697
81.809,64.7001,-0.000697
81.824,64.7001,-0.000697
81.840,64.7001,-0.000687
81.856,64.7001,-0.000687
81.872,64.7001,-0.000687
81.889,64.7001,-0.000687
81.908,64.7001,-0.000687
81.923,64.7001,-0.000687
81.939,64.7001,-0.000687
81.955,64.7001,-0.000687
81.970,64.7001,-0.000687
82.001,64.7001,-0.000687
82.016,64.7001,-0.000687
82.032,64.7001,-0.000687
82.047,64.7001,-0.000687
82.064,64.7001,-0.000687
82.080,64.7001,-0.000687
82.095,64.7001,-0.000687
82.124,64.7001,-0.000706
82.139,64.7001,-0.000706
82.155,64.7001,-0.000706
82.171,64.7001,-0.000706
82.188,64.7001,-0.000706
82.216,64.7001,-0.000706
82.235,64.7001,-0.000706
82.251,64.7001,-0.000706
82.266,64.7001,-0.000706
82.282,64.7001,-0.000706
82.299,64.7001,-0.000706
82.315,64.7001,-0.000706
82.331,64.7001,-0.000706
82.347,64.7001,-0.000687
82.363,64.7001,-0.000687
82.379,64.7001,-0.000687
82.396,64.7001,-0.000687
82.419,64.7001,-0.000687
82.450,64.7001,-0.000687
82.480,64.7001,-0.000687
82.511,64.7001,-0.000687
82.542,64.7001,-0.000687
82.572,64.7001,-0.000687
82.603,64.7001,-0.000668
82.619,64.7001,-0.000668
82.635,64.7001,-0.000668
82.650,64.7001,-0.000668
82.682,64.7001,-0.000668
82.698,64.7001,-0.000668
82.714,64.7001,-0.000668
82.729,64.7001,-0.000668
82.746,64.7001,-0.000668
82.761,64.7001,-0.000668
82.777,64.7001,-0.000668
82.793,64.7001,-0.000668
82.812,64.7001,-0.000668
82.838,64.7001,-0.000659
82.858,64.7001,-0.000659
82.874,64.7001,-0.000659
82.899,64.7001,-0.000659
82.930,64.7001,-0.000659
82.947,64.7001,-0.000659
82.977,64.7001,-0.000659
83.008,64.7001,-0.000659
83.039,64.7001,-0.000659
83.070,64.7001,-0.000659
83.101,64.7001,-0.000687
83.117,64.7001,-0.000687
83.149,64.7001,-0.000687
83.179,64.7001,-0.000687
83.195,64.7001,-0.000687
83.211,64.7001,-0.000687
83.240,64.7001,-0.000687
83.256,64.7001,-0.000687
83.272,64.7001,-0.000687
83.288,64.7001,-0.000687
83.306,64.7001,-0.000687
83.334,64.7001,-0.000687
83.352,64.7001,-0.000781
83.369,64.7001,-0.000781
83.385,64.7001,-0.000781
83.400,64.7001,-0.000781
83.416,64.7001,-0.000781
83.434,64.7001,-0.000781
83.458,64.7001,-0.000781
83.489,64.7001,-0.000781
83.506,64.7001,-0.000781
83.536,64.7001,-0.000781
83.566,64.7001,-0.000781
83.597,64.7001,-0.000875
83.613,64.7001,-0.000875
83.645,64.7001,-0.000875
83.662,64.7001,-0.000875
83.692,64.6994,-0.000875
83.723,64.6981,-0.000875
83.754,64.6960,-0.000875
83.770,64.6946,-0.000875
83.786,64.6931,-0.000875
83.816,64.6898,-0.000875
83.832,64.6876,-0.000875
83.848,64.6853,-0.000875
83.864,64.6829,-0.000875
83.880,64.6802,-0.000913
83.896,64.6774,-0.000913
83.913,64.6740,-0.000913
83.941,64.6681,-0.000913
83.960,64.6640,-0.000913
83.978,64.6596,-0.000913
84.003,64.6530,-0.000913
84.024,64.6475,-0.000913
84.044,64.6416,-0.000913
84.066,64.6349,-0.000913
84.096,64.6251,-0.000913
84.113,64.6193,-0.000913
84.143,64.6080,0.000414
84.175,64.5962,0.000414
84.205,64.5837,0.000414
84.235,64.5706,0.000414
84.266,64.5566,0.000414
84.297,64.5420,0.000414
84.312,64.5346,0.000414
84.342,64.5190,0.000414
84.358,64.5109,0.000414
84.374,64.5022,0.004396
84.390,64.4934,0.004396
84.406,64.4840,0.004396
84.423,64.4747,0.004396
84.451,64.4577,0.004396
84.475,64.4431,0.004396
84.501,64.4267,0.004396
84.518,64.4157,0.004396
84.533,64.4051,0.004396
84.550,64.3943,0.004396
84.566,64.3833,0.004396
84.582,64.3718,0.004396
84.602,64.3570,0.004396
84.622,64.3434,0.004396
84.652,64.3208,0.010778
84.671,64.3059,0.010778
84.698,64.2844,0.010778
84.729,64.2595,0.010778
84.760,64.2336,0.010778
84.790,64.2089,0.010778
84.806,64.1947,0.010778
84.822,64.1814,0.010778
84.839,64.1654,0.010778
84.867,64.1407,0.010778
84.886,64.1230,0.016784
84.902,64.1077,0.016784
84.917,64.0928,0.016784
84.934,64.0772,0.016784
84.950,64.0607,0.016784
84.966,64.0455,0.016784
84.982,64.0296,0.016784
84.998,64.0128,0.016784
85.015,63.9960,0.016784
85.035,63.9730,0.016784
85.051,63.9579,0.016784
85.067,63.9416,0.016784
85.098,63.9074,0.016784
85.128,63.8744,0.009338
85.159,63.8391,0.009338
85.174,63.8222,0.009338
85.189,63.8042,0.009338
85.207,63.7833,0.009338
85.222,63.7653,0.009338
85.251,63.7306,0.009338
85.269,63.7084,0.009338
85.286,63.6884,0.009338
85.301,63.6692,0.009338
85.317,63.6487,0.009338
85.334,63.6276,0.009338
85.349,63.6081,0.009338
85.366,63.5868,-0.000405
85.381,63.5668,-0.000405
85.410,63.5283,-0.000405
85.427,63.5056,-0.000405
85.453,63.4707,-0.000405
85.474,63.4425,-0.000405
85.489,63.4211,-0.000405
85.505,63.3982,-0.000405
85.522,63.3745,-0.000405
85.538,63.3525,-0.000405
85.559,63.3214,-0.000405
85.575,63.2991,-0.000405
85.606,63.2524,-0.000424
85.637,63.2066,-0.000424
85.653,63.1816,-0.000424
85.669,63.1583,-0.000424
85.699,63.1128,-0.000424
85.730,63.0643,-0.000424
85.745,63.0402,-0.000424
85.762,63.0140,-0.000424
85.777,62.9890,-0.000424
85.793,62.9631,-0.000424
85.809,62.9371,-0.000424
85.828,62.9065,-0.000424
85.853,62.8651,-0.000461
85.873,62.8311,-0.000461
85.891,62.8001,-0.000461
85.916,62.7590,-0.000461
85.946,62.7045,-0.000461
85.978,62.6509,-0.000461
85.993,62.6238,-0.000461
86.023,62.5697,-0.000461
86.054,62.5131,-0.000461
86.074,62.4777,-0.000461
86.100,62.4299,-0.000499
86.131,62.3725,-0.000499
86.146,62.3439,-0.000499
86.161,62.3156,-0.000499
86.181,62.2761,-0.000499
86.208,62.2252,-0.000499
86.226,62.1906,-0.000499
86.255,62.1316,-0.000499
86.273,62.0977,-0.000499
86.289,62.0660,-0.000499
86.306,62.0306,-0.000499
86.332,61.9792,-0.000499
86.353,61.9369,-0.000621
86.370,61.9018,-0.000621
86.385,61.8700,-0.000621
86.401,61.8366,-0.000621
86.418,61.8024,-0.000621
86.433,61.7694,-0.000621
86.449,61.7370,-0.000621
86.465,61.7029,-0.000621
86.488,61.6539,-0.000621
86.505,61.6178,-0.000621
86.520,61.5855,-0.000621
86.536,61.5518,-0.000621
86.554,61.5123,-0.000621
86.580,61.4585,-0.000621
86.600,61.4199,-0.000678
86.616,61.3865,-0.000678
86.632,61.3529,-0.000678
86.648,61.3214,-0.000678
86.667,61.2839,-0.000678
86.690,61.2391,-0.000678
86.720,61.1780,-0.000678
86.751,61.1189,-0.000678
86.781,61.0601,-0.000678
86.811,61.0046,-0.000678
86.827,60.9739,-0.000678
86.857,60.9176,-0.000678
86.872,60.8898,-0.000715
86.888,60.8619,-0.000715
86.909,60.8216,-0.000715
86.935,60.7763,-0.000715
86.952,60.7458,-0.000715
86.968,60.7177,-0.000715
86.984,60.6883,-0.000715
87.000,60.6607,-0.000715
87.028,60.6112,-0.000715
87.048,60.5783,-0.000715
87.075,60.5319,-0.000715
87.092,60.5040,-0.000715
87.108,60.4758,-0.000715
87.124,60.4509,-0.000650
87.140,60.4240,-0.000650
87.156,60.3977,-0.000650
87.172,60.3727,-0.000650
87.188,60.3470,-0.000650
87.204,60.3209,-0.000650
87.221,60.2928,-0.000650
87.244,60.2567,-0.000650
87.260,60.2333,-0.000650
87.275,60.2079,-0.000650
87.307,60.1608,-0.000650
87.338,60.1135,-0.000650
87.354,60.0907,-0.000650
87.384,60.0469,-0.000555
87.418,59.9963,-0.000555
87.446,59.9581,-0.000555
87.476,59.9154,-0.000555
87.492,59.8944,-0.000555
87.508,59.8726,-0.000555
87.525,59.8495,-0.000555
87.554,59.8099,-0.000555
87.583,59.7726,-0.000555
87.599,59.7518,-0.000555
87.615,59.7315,-0.000546
87.631,59.7113,-0.000546
87.647,59.6907,-0.000546
87.662,59.6713,-0.000546
87.678,59.6513,-0.000546
87.694,59.6318,-0.000546
87.714,59.6074,-0.000546
87.738,59.5788,-0.000546
87.758,59.5556,-0.000546
87.775,59.5357,-0.000546
87.790,59.5184,-0.000546
87.807,59.4997,-0.000546
87.823,59.4816,-0.000546
87.839,59.4632,-0.000546
87.855,59.4452,-0.000546
87.871,59.4286,-0.000518
87.886,59.4118,-0.000518
87.903,59.3941,-0.000518
87.918,59.3777,-0.000518
87.935,59.3607,-0.000518
87.950,59.3445,-0.000518
87.966,59.3281,-0.000518
87.983,59.3116,-0.000518
87.999,59.2959,-0.000518
88.014,59.2806,-0.000518
88.030,59.2642,-0.000518
88.047,59.2493,-0.000518
88.062,59.2347,-0.000518
88.078,59.2193,-0.000518
88.095,59.2041,-0.000518
88.110,59.1902,-0.000518
88.138,59.1651,-0.000480
88.155,59.1502,-0.000480
88.170,59.1374,-0.000480
88.187,59.1235,-0.000480
88.202,59.1101,-0.000480
88.218,59.0970,-0.000480
88.235,59.0830,-0.000480
88.251,59.0708,-0.000480
88.266,59.0581,-0.000480
88.282,59.0458,-0.000480
88.298,59.0338,-0.000480
88.314,59.0216,-0.000480
88.332,59.0084,-0.000480
88.353,58.9926,-0.000480
88.369,58.9816,-0.000452
88.400,58.9599,-0.000452
88.431,58.9392,-0.000452
88.446,58.9286,-0.000452
88.463,58.9183,-0.000452
88.493,58.8995,-0.000452
88.509,58.8892,-0.000452
88.541,58.8709,-0.000452
88.572,58.8537,-0.000452
88.587,58.8453,-0.000452
88.603,58.8365,-0.000386
88.635,58.8201,-0.000386
88.650,58.8124,-0.000386
88.666,58.8046,-0.000386
88.695,58.7908,-0.000386
88.712,58.7833,-0.000386
88.728,58.7763,-0.000386
88.743,58.7695,-0.000386
88.759,58.7628,-0.000386
88.775,58.7564,-0.000386
88.791,58.7500,-0.000386
88.807,58.7439,-0.000386
88.824,58.7375,-0.000386
88.841,58.7317,-0.000386
88.856,58.7265,-0.000348
88.871,58.7214,-0.000348
88.888,58.7159,-0.000348
88.903,58.7112,-0.000348
88.919,58.7065,-0.000348
88.935,58.7018,-0.000348
88.952,58.6973,-0.000348
88.967,58.6931,-0.000348
88.984,58.6893,-0.000348
88.999,58.6854,-0.000348
89.015,58.6819,-0.000348
89.031,58.6785,-0.000348
89.047,58.6751,-0.000348
89.063,58.6721,-0.000348
89.079,58.6694,-0.000348
89.095,58.6668,-0.000395
89.111,58.6643,-0.000395
89.127,58.6620,-0.000395
89.143,58.6600,-0.000395
89.159,58.6580,-0.000395
89.175,58.6564,-0.000395
89.191,58.6550,-0.000395
89.208,58.6537,-0.000395
89.223,58.6527,-0.000395
89.252,58.6512,-0.000395
89.267,58.6506,-0.000395
89.283,58.6502,-0.000395
89.299,58.6501,-0.000395
89.316,58.6501,-0.000395
89.332,58.6501,-0.000395
89.347,58.6501,-0.000395
89.363,58.6501,-0.000395
89.379,58.6501,-0.000395
89.395,58.6501,-0.000395
89.411,58.6501,-0.000395
89.427,58.6501,-0.000395
89.444,58.6503,-0.000395
89.459,58.6507,-0.000395
89.476,58.6513,-0.000395
89.491,58.6519,-0.000395
89.509,58.6532,-0.000395
89.532,58.6549,-0.000395
89.562,58.6579,-0.000395
89.593,58.6615,-0.000395
89.625,58.6661,-0.000320
89.640,58.6684,-0.000320
89.671,58.6739,-0.000320
89.688,58.6773,-0.000320
89.717,58.6837,-0.000320
89.732,58.6871,-0.000320
89.763,58.6948,-0.000320
89.779,58.6989,-0.000320
89.808,58.7074,-0.000320
89.826,58.7128,-0.000320
89.856,58.7221,-0.000386
89.872,58.7277,-0.000386
89.888,58.7332,-0.000386
89.904,58.7387,-0.000386
89.920,58.7447,-0.000386
89.939,58.7523,-0.000386
89.964,58.7623,-0.000386
89.984,58.7705,-0.000386
90.000,58.7777,-0.000386
90.016,58.7845,-0.000386
90.032,58.7921,-0.000386
90.048,58.7995,-0.000386
90.064,58.8071,-0.000386
90.081,58.8153,-0.000386
90.104,58.8272,-0.000480
90.135,58.8437,-0.000480
90.151,58.8526,-0.000480
90.182,58.8705,-0.000480
90.198,58.8790,-0.000480
90.229,58.8981,-0.000480
90.260,58.9172,-0.000480
90.276,58.9274,-0.000480
90.291,58.9374,-0.000480
90.322,58.9586,-0.000480
90.352,58.9788,-0.000508
90.368,58.9908,-0.000508
90.384,59.0019,-0.000508
90.399,59.0136,-0.000508
90.416,59.0264,-0.000508
90.433,59.0391,-0.000508
90.458,59.0590,-0.000508
90.479,59.0751,-0.000508
90.496,59.0884,-0.000508
90.512,59.1019,-0.000508
90.527,59.1144,-0.000508
90.544,59.1283,-0.000508
90.560,59.1424,-0.000508
90.575,59.1558,-0.000508
90.592,59.1698,-0.000471
90.607,59.1840,-0.000471
90.623,59.1985,-0.000471
90.640,59.2139,-0.000471
90.660,59.2324,-0.000471
90.689,59.2606,-0.000471
90.721,59.2915,-0.000471
90.752,59.3219,-0.000471
90.767,59.3374,-0.000471
90.783,59.3541,-0.000471
90.799,59.3706,-0.000471
90.816,59.3881,-0.000471
90.845,59.4193,-0.000471
90.876,59.4536,-0.000358
90.892,59.4701,-0.000358
90.907,59.4876,-0.000358
90.923,59.5058,-0.000358
90.940,59.5243,-0.000358
90.955,59.5424,-0.000358
90.971,59.5615,-0.000358
90.987,59.5805,-0.000358
91.004,59.6001,-0.000358
91.020,59.6193,-0.000358
91.036,59.6389,-0.000358
91.051,59.6576,-0.000358
91.068,59.6781,-0.000358
91.083,59.6973,-0.000358
91.102,59.7227,-0.000358
91.125,59.7511,-0.000358
91.157,59.7922,-0.000433
91.187,59.8330,-0.000433
91.203,59.8532,-0.000433
91.234,59.8964,-0.000433
91.263,59.9363,-0.000433
91.279,59.9583,-0.000433
91.309,60.0020,-0.000433
91.340,60.0461,-0.000433
91.359,60.0743,-0.000433
91.386,60.1135,-0.000433
91.418,60.1624,-0.000546
91.435,60.1868,-0.000546
91.451,60.2114,-0.000546
91.466,60.2350,-0.000546
91.482,60.2599,-0.000546
91.499,60.2858,-0.000546
91.514,60.3101,-0.000546
91.530,60.3357,-0.000546
91.546,60.3613,-0.000546
91.562,60.3879,-0.000546
91.578,60.4149,-0.000546
91.594,60.4395,-0.000518
91.610,60.4671,-0.000518
91.626,60.4924,-0.000518
91.642,60.5190,-0.000518
91.658,60.5464,-0.000518
91.675,60.5754,-0.000518
91.690,60.6014,-0.000518
91.706,60.6284,-0.000518
91.722,60.6568,-0.000518
91.738,60.6843,-0.000518
91.754,60.7126,-0.000518
91.770,60.7411,-0.000518
91.786,60.7695,-0.000518
91.802,60.7984,-0.000518
91.818,60.8269,-0.000518
91.834,60.8568,-0.000518
91.851,60.8886,-0.000518
91.867,60.9168,-0.000518
91.896,60.9710,-0.000555
91.914,61.0065,-0.000555
91.931,61.0370,-0.000555
91.946,61.0659,-0.000555
91.975,61.1217,-0.000555
91.990,61.1506,-0.000555
92.006,61.1816,-0.000555
92.022,61.2131,-0.000555
92.039,61.2479,-0.000555
92.055,61.2782,-0.000555
92.082,61.3350,-0.000555
92.104,61.3772,-0.000555
92.129,61.4291,-0.000668
92.151,61.4733,-0.000668
92.167,61.5079,-0.000668
92.183,61.5404,-0.000668
92.198,61.5728,-0.000668
92.214,61.6050,-0.000668
92.231,61.6406,-0.000668
92.246,61.6733,-0.000668
92.262,61.7075,-0.000668
92.278,61.7416,-0.000668
92.295,61.7761,-0.000668
92.314,61.8156,-0.000668
92.330,61.8491,-0.000668
92.346,61.8824,-0.000668
92.362,61.9152,-0.000668
92.392,61.9758,-0.000650
92.423,62.0373,-0.000650
92.438,62.0673,-0.000650
92.454,62.0982,-0.000650
92.471,62.1349,-0.000650
92.486,62.1617,-0.000650
92.502,62.1917,-0.000650
92.533,62.2523,-0.000650
92.563,62.3080,-0.000650
92.580,62.3404,-0.000650
92.598,62.3732,-0.000650
92.613,62.4014,-0.000650
92.640,62.4511,-0.000602
92.660,62.4878,-0.000602
92.687,62.5367,-0.000602
92.708,62.5729,-0.000602
92.725,62.6026,-0.000602
92.740,62.6301,-0.000602
92.756,62.6568,-0.000602
92.772,62.6844,-0.000602
92.788,62.7138,-0.000602
92.804,62.7405,-0.000602
92.820,62.7664,-0.000602
92.836,62.7934,-0.000602
92.852,62.8208,-0.000602
92.868,62.8466,-0.000602
92.884,62.8736,-0.000602
92.900,62.8997,-0.000602
92.916,62.9250,-0.000602
92.933,62.9532,-0.000602
92.950,62.9796,-0.000602
92.980,63.0275,-0.000602
92.996,63.0531,-0.000602
93.012,63.0772,-0.000602
93.032,63.1086,-0.000602
93.056,63.1452,-0.000602
93.076,63.1737,-0.000602
93.092,63.1984,-0.000602
93.108,63.2213,-0.000602
93.124,63.2455,-0.000602
93.140,63.2681,-0.000602
93.156,63.2923,-0.000602
93.172,63.3143,-0.000602
93.187,63.3363,-0.000602
93.204,63.3605,-0.000602
93.225,63.3916,-0.000602
93.242,63.4121,-0.000602
93.258,63.4345,-0.000602
93.288,63.4747,-0.000602
93.304,63.4954,-0.000602
93.319,63.5158,-0.000602
93.335,63.5367,-0.000602
93.351,63.5578,-0.000602
93.382,63.5967,-0.000518
93.399,63.6184,-0.000518
93.430,63.6555,-0.000518
93.446,63.6752,-0.000518
93.461,63.6948,-0.000518
93.492,63.7312,-0.000518
93.508,63.7493,-0.000518
93.524,63.7681,-0.000518
93.540,63.7867,-0.000518
93.555,63.8040,-0.000518
93.571,63.8222,-0.000518
93.588,63.8412,-0.000518
93.604,63.8583,-0.000518
93.619,63.8752,-0.000518
93.646,63.9043,-0.000433
93.662,63.9211,-0.000433
93.678,63.9377,-0.000433
93.694,63.9538,-0.000433
93.711,63.9707,-0.000433
93.726,63.9865,-0.000433
93.743,64.0032,-0.000433
93.759,64.0195,-0.000433
93.779,64.0380,-0.000433
93.800,64.0593,-0.000433
93.822,64.0792,-0.000433
93.839,64.0947,-0.000433
93.854,64.1085,-0.000433
93.870,64.1228,-0.000414
93.886,64.1371,-0.000414
93.903,64.1516,-0.000414
93.919,64.1653,-0.000414
93.934,64.1788,-0.000414
93.950,64.1919,-0.000414
93.966,64.2054,-0.000414
93.982,64.2185,-0.000414
93.998,64.2310,-0.000414
94.015,64.2446,-0.000414
94.031,64.2570,-0.000414
94.047,64.2691,-0.000414
94.062,64.2810,-0.000414
94.079,64.2934,-0.000414
94.094,64.3039,-0.000414
94.110,64.3155,-0.000433
94.126,64.3269,-0.000433
94.143,64.3385,-0.000433
94.159,64.3491,-0.000433
94.174,64.3594,-0.000433
94.201,64.3770,-0.000433
94.217,64.3876,-0.000433
94.233,64.3972,-0.000433
94.249,64.4071,-0.000433
94.266,64.4172,-0.000433
94.282,64.4267,-0.000433
94.310,64.4427,-0.000433
94.329,64.4534,-0.000433
94.346,64.4620,-0.000433
94.362,64.4705,-0.000508
94.377,64.4787,-0.000508
94.394,64.4867,-0.000508
94.410,64.4947,-0.000508
94.425,64.5022,-0.000508
94.441,64.5097,-0.000508
94.458,64.5170,-0.000508
94.473,64.5238,-0.000508
94.489,64.5308,-0.000508
94.505,64.5375,-0.000508
94.522,64.5443,-0.000508
94.537,64.5502,-0.000508
94.553,64.5564,-0.000508
94.569,64.5624,-0.000508
94.585,64.5683,-0.000508
94.601,64.5737,-0.000593
94.617,64.5790,-0.000593
94.633,64.5842,-0.000593
94.649,64.5890,-0.000593
94.665,64.5938,-0.000593
94.681,64.5984,-0.000593
94.697,64.6029,-0.000593
94.713,64.6070,-0.000593
94.729,64.6110,-0.000593
94.758,64.6177,-0.000593
94.774,64.6213,-0.000593
94.790,64.6244,-0.000593
94.806,64.6275,-0.000593
94.823,64.6305,-0.000593
94.838,64.6331,-0.000593
94.854,64.6354,-0.000650
94.870,64.6377,-0.000650
94.887,64.6400,-0.000650
94.902,64.6419,-0.000650
94.918,64.6435,-0.000650
94.934,64.6449,-0.000650
94.951,64.6463,-0.000650
94.966,64.6473,-0.000650
94.982,64.6483,-0.000650
94.999,64.6491,-0.000650
95.014,64.6496,-0.000650
95.030,64.6499,-0.000650
95.046,64.6501,-0.000650
95.062,64.6501,-0.000650
95.078,64.6501,-0.000650
95.094,64.6501,-0.000650
95.110,64.6501,-0.000650
95.126,64.6501,-0.000650
95.142,64.6501,-0.000650
95.158,64.6501,-0.000650
95.174,64.6501,-0.000650
95.190,64.6501,-0.000650
95.206,64.6501,-0.000650
