Elapsed Time (s),Position (mm),Force (N)
-0.016,66.9501,-0.001638
0.001,66.9501,-0.001638
0.016,66.9501,-0.001638
0.033,66.9501,-0.001638
0.053,66.9501,-0.001638
0.069,66.9501,-0.001638
0.100,66.9501,-0.001638
0.132,66.9501,-0.001638
0.148,66.9501,-0.001638
0.163,66.9501,-0.001638
0.179,66.9501,-0.001638
0.210,66.9501,-0.001638
0.241,66.9501,-0.001657
0.265,66.9501,-0.001657
0.287,66.9501,-0.001657
0.304,66.9501,-0.001657
0.323,66.9501,-0.001657
0.349,66.9501,-0.001657
0.368,66.9501,-0.001657
0.388,66.9501,-0.001657
0.411,66.9501,-0.001657
0.432,66.9501,-0.001657
0.449,66.9501,-0.001657
0.464,66.9501,-0.001657
0.480,66.9501,-0.001581
0.496,66.9501,-0.001581
0.512,66.9501,-0.001581
0.528,66.9501,-0.001581
0.544,66.9501,-0.001581
0.560,66.9501,-0.001581
0.576,66.9501,-0.001581
0.592,66.9501,-0.001581
0.608,66.9501,-0.001581
0.624,66.9501,-0.001581
0.640,66.9501,-0.001581
0.656,66.9501,-0.001581
0.672,66.9501,-0.001581
0.688,66.9501,-0.001581
0.704,66.9501,-0.001581
0.720,66.9501,-0.001553
0.740,66.9501,-0.001553
0.767,66.9501,-0.001553
0.784,66.9501,-0.001553
0.800,66.9501,-0.001553
0.816,66.9501,-0.001553
0.832,66.9501,-0.001553
0.848,66.9501,-0.001553
0.864,66.9501,-0.001553
0.880,66.9501,-0.001553
0.896,66.9501,-0.001553
0.912,66.9501,-0.001553
0.928,66.9501,-0.001553
0.944,66.9501,-0.001553
0.960,66.9501,-0.001638
0.976,66.9501,-0.001638
0.992,66.9501,-0.001638
1.008,66.9501,-0.001638
1.024,66.9501,-0.001638
1.040,66.9501,-0.001638
1.056,66.9501,-0.001638
1.072,66.9501,-0.001638
1.087,66.9501,-0.001638
1.104,66.9501,-0.001638
1.123,66.9501,-0.001638
1.151,66.9501,-0.001638
1.178,66.9501,-0.001638
1.194,66.9501,-0.001638
1.210,66.9501,-0.001647
1.226,66.9501,-0.001647
1.242,66.9501,-0.001647
1.258,66.9501,-0.001647
1.274,66.9501,-0.001647
1.290,66.9501,-0.001647
1.306,66.9501,-0.001647
1.322,66.9501,-0.001647
1.338,66.9501,-0.001647
1.353,66.9501,-0.001647
1.372,66.9501,-0.001647
1.399,66.9501,-0.001647
1.418,66.9501,-0.001647
1.435,66.9501,-0.001647
1.450,66.9501,-0.001647
1.465,66.9501,-0.001610
1.482,66.9501,-0.001610
1.499,66.9501,-0.001610
1.514,66.9501,-0.001610
1.529,66.9501,-0.001610
1.546,66.9501,-0.001610
1.562,66.9501,-0.001610
1.577,66.9501,-0.001610
1.594,66.9501,-0.001610
1.610,66.9501,-0.001610
1.626,66.9501,-0.001610
1.642,66.9501,-0.001610
1.660,66.9501,-0.001610
1.690,66.9501,-0.001610
1.706,66.9501,-0.001610
1.732,66.9501,-0.001600
1.748,66.9501,-0.001600
1.765,66.9501,-0.001600
1.781,66.9501,-0.001600
1.797,66.9501,-0.001600
1.812,66.9501,-0.001600
1.829,66.9501,-0.001600
1.846,66.9501,-0.001600
1.861,66.9501,-0.001600
1.877,66.9501,-0.001600
1.892,66.9501,-0.001600
1.908,66.9501,-0.001600
1.924,66.9501,-0.001600
1.940,66.9501,-0.001600
1.957,66.9501,-0.001638
1.972,66.9501,-0.001638
1.989,66.9501,-0.001638
2.005,66.9501,-0.001638
2.021,66.9501,-0.001638
2.037,66.9501,-0.001638
2.057,66.9501,-0.001638
2.079,66.9501,-0.001638
2.095,66.9501,-0.001638
2.126,66.9501,-0.001638
2.157,66.9501,-0.001638
2.188,66.9501,-0.001638
2.219,66.9501,-0.001628
2.235,66.9501,-0.001628
2.258,66.9501,-0.001628
2.275,66.9501,-0.001628
2.291,66.9501,-0.001628
2.306,66.9501,-0.001628
2.322,66.9501,-0.001628
2.339,66.9501,-0.001628
2.354,66.9501,-0.001628
2.370,66.9501,-0.001628
2.387,66.9501,-0.001628
2.402,66.9501,-0.001628
2.419,66.9501,-0.001628
2.435,66.9501,-0.001628
2.450,66.9501,-0.001628
2.466,66.9501,-0.001657
2.483,66.9501,-0.001657
2.498,66.9501,-0.001657
2.514,66.9501,-0.001657
2.530,66.9501,-0.001657
2.547,66.9501,-0.001657
2.564,66.9501,-0.001657
2.592,66.9501,-0.001657
2.616,66.9501,-0.001657
2.637,66.9501,-0.001657
2.658,66.9501,-0.001657
2.675,66.9501,-0.001657
2.691,66.9501,-0.001657
2.706,66.9501,-0.001676
2.725,66.9501,-0.001676
2.746,66.9501,-0.001676
2.762,66.9501,-0.001676
2.783,66.9501,-0.001676
2.804,66.9501,-0.001676
2.823,66.9501,-0.001676
2.854,66.9501,-0.001676
2.869,66.9501,-0.001676
2.885,66.9501,-0.001676
2.916,66.9501,-0.001676
2.946,66.9501,-0.001676
2.977,66.9501,-0.001676
2.993,66.9501,-0.001610
3.009,66.9501,-0.001610
3.025,66.9501,-0.001610
3.056,66.9501,-0.001610
3.086,66.9501,-0.001610
3.102,66.9501,-0.001610
3.118,66.9501,-0.001610
3.135,66.9501,-0.001610
3.164,66.9501,-0.001610
3.182,66.9501,-0.001610
3.198,66.9501,-0.001610
3.214,66.9501,-0.001610
3.230,66.9501,-0.001610
3.246,66.9501,-0.001610
3.262,66.9501,-0.001610
3.278,66.9501,-0.001610
3.294,66.9501,-0.001610
3.317,66.9501,-0.001610
3.334,66.9501,-0.001610
3.349,66.9501,-0.001610
3.365,66.9501,-0.001610
3.382,66.9501,-0.001610
3.412,66.9501,-0.001610
3.429,66.9501,-0.001610
3.446,66.9501,-0.001610
3.475,66.9501,-0.001610
3.493,66.9501,-0.001610
3.509,66.9501,-0.001610
3.525,66.9501,-0.001610
3.541,66.9501,-0.001610
3.557,66.9501,-0.001610
3.573,66.9501,-0.001610
3.589,66.9501,-0.001610
3.605,66.9501,-0.001610
3.621,66.9501,-0.001610
3.637,66.9501,-0.001610
3.653,66.9501,-0.001610
3.669,66.9501,-0.001610
3.685,66.9501,-0.001610
3.701,66.9501,-0.001610
3.717,66.9501,-0.001619
3.733,66.9501,-0.001619
3.749,66.9501,-0.001619
3.774,66.9501,-0.001619
3.800,66.9501,-0.001619
3.831,66.9501,-0.001619
3.847,66.9501,-0.001619
3.872,66.9501,-0.001619
3.888,66.9501,-0.001619
3.904,66.9501,-0.001619
3.920,66.9501,-0.001619
3.936,66.9501,-0.001619
3.952,66.9501,-0.001619
3.968,66.9501,-0.001694
3.984,66.9501,-0.001694
4.000,66.9501,-0.001694
4.016,66.9501,-0.001694
4.031,66.9501,-0.001694
4.048,66.9501,-0.001694
4.064,66.9501,-0.001694
4.080,66.9501,-0.001694
4.096,66.9501,-0.001694
4.112,66.9498,-0.001694
4.128,66.9493,-0.001694
4.144,66.9488,-0.001694
4.160,66.9480,-0.001694
4.175,66.9470,-0.001694
4.192,66.9457,-0.001694
4.208,66.9444,-0.001694
4.224,66.9429,-0.001694
4.240,66.9410,-0.001694
4.256,66.9392,-0.001760
4.272,66.9368,-0.001760
4.288,66.9346,-0.001760
4.304,66.9321,-0.001760
4.320,66.9292,-0.001760
4.336,66.9263,-0.001760
4.352,66.9232,-0.001760
4.368,66.9198,-0.001760
4.384,66.9163,-0.001760
4.400,66.9125,-0.001760
4.417,66.9085,-0.001760
4.432,66.9046,-0.001760
4.448,66.9000,-0.001760
4.470,66.8938,-0.001760
4.497,66.8857,-0.000988
4.513,66.8808,-0.000988
4.529,66.8757,-0.000988
4.544,66.8705,-0.000988
4.560,66.8646,-0.000988
4.577,66.8586,-0.000988
4.592,66.8528,-0.000988
4.607,66.8469,-0.000988
4.624,66.8400,-0.000988
4.641,66.8334,-0.000988
4.656,66.8269,-0.000988
4.672,66.8199,-0.000988
4.688,66.8122,-0.000988
4.704,66.8050,-0.000988
4.720,66.7975,-0.000988
4.736,66.7898,0.001563
4.751,66.7820,0.001563
4.768,66.7736,0.001563
4.783,66.7655,0.001563
4.799,66.7570,0.001563
4.816,66.7478,0.001563
4.834,66.7378,0.001563
4.854,66.7262,0.001563
4.885,66.7081,0.001563
4.916,66.6888,0.001563
4.942,66.6719,0.001563
4.959,66.6612,0.001563
4.974,66.6507,0.006194
4.991,66.6397,0.006194
5.007,66.6285,0.006194
5.022,66.6175,0.006194
5.038,66.6064,0.006194
5.055,66.5938,0.006194
5.078,66.5769,0.006194
5.101,66.5593,0.006194
5.119,66.5458,0.006194
5.135,66.5322,0.006194
5.151,66.5205,0.006194
5.167,66.5073,0.006194
5.182,66.4945,0.006194
5.200,66.4798,0.006194
5.225,66.4586,0.006194
5.240,66.4448,0.004189
5.271,66.4179,0.004189
5.301,66.3910,0.004189
5.317,66.3756,0.004189
5.333,66.3602,0.004189
5.364,66.3317,0.004189
5.395,66.3003,0.004189
5.426,66.2699,0.004189
5.457,66.2371,0.004189
5.473,66.2216,0.004189
5.489,66.2047,-0.000810
5.520,66.1702,-0.000810
5.535,66.1542,-0.000810
5.567,66.1194,-0.000810
5.583,66.1013,-0.000810
5.598,66.0837,-0.000810
5.615,66.0649,-0.000810
5.631,66.0461,-0.000810
5.647,66.0269,-0.000810
5.662,66.0090,-0.000810
5.680,65.9875,-0.000810
5.704,65.9583,-0.000810
5.734,65.9198,-0.000885
5.766,65.8811,-0.000885
5.796,65.8409,-0.000885
5.828,65.8013,-0.000885
5.859,65.7585,-0.000885
5.875,65.7383,-0.000885
5.890,65.7163,-0.000885
5.906,65.6951,-0.000885
5.922,65.6724,-0.000885
5.953,65.6296,-0.000885
5.980,65.5905,-0.000791
5.996,65.5672,-0.000791
6.012,65.5450,-0.000791
6.028,65.5215,-0.000791
6.045,65.4960,-0.000791
6.061,65.4722,-0.000791
6.076,65.4485,-0.000791
6.092,65.4257,-0.000791
6.109,65.4002,-0.000791
6.125,65.3756,-0.000791
6.153,65.3317,-0.000791
6.172,65.3009,-0.000791
6.188,65.2763,-0.000791
6.204,65.2503,-0.000791
6.221,65.2234,-0.000678
6.236,65.1991,-0.000678
6.252,65.1733,-0.000678
6.268,65.1470,-0.000678
6.284,65.1200,-0.000678
6.300,65.0928,-0.000678
6.316,65.0664,-0.000678
6.332,65.0390,-0.000678
6.349,65.0112,-0.000678
6.364,64.9849,-0.000678
6.380,64.9562,-0.000678
6.396,64.9292,-0.000678
6.412,64.9007,-0.000678
6.428,64.8721,-0.000678
6.445,64.8422,-0.000678
6.461,64.8132,-0.000678
6.477,64.7843,-0.000678
6.493,64.7554,-0.000678
6.520,64.7060,-0.000555
6.536,64.6765,-0.000555
6.552,64.6461,-0.000555
6.568,64.6167,-0.000555
6.585,64.5852,-0.000555
6.602,64.5527,-0.000555
6.632,64.4944,-0.000555
6.649,64.4627,-0.000555
6.679,64.4030,-0.000555
6.696,64.3703,-0.000555
6.712,64.3364,-0.000555
6.728,64.3070,-0.000555
6.744,64.2751,-0.000424
6.760,64.2427,-0.000424
6.777,64.2072,-0.000424
6.792,64.1757,-0.000424
6.808,64.1448,-0.000424
6.824,64.1118,-0.000424
6.840,64.0772,-0.000424
6.857,64.0431,-0.000424
6.872,64.0113,-0.000424
6.888,63.9775,-0.000424
6.904,63.9415,-0.000424
6.920,63.9093,-0.000424
6.936,63.8744,-0.000424
6.952,63.8412,-0.000424
6.968,63.8065,-0.000424
6.984,63.7745,-0.000301
7.000,63.7394,-0.000301
7.016,63.7079,-0.000301
7.032,63.6752,-0.000301
7.048,63.6413,-0.000301
7.077,63.5827,-0.000301
7.093,63.5491,-0.000301
7.109,63.5182,-0.000301
7.125,63.4878,-0.000301
7.141,63.4554,-0.000301
7.157,63.4235,-0.000301
7.173,63.3923,-0.000301
7.189,63.3617,-0.000301
7.204,63.3321,-0.000301
7.221,63.3012,-0.000301
7.236,63.2711,-0.000320
7.253,63.2407,-0.000320
7.269,63.2103,-0.000320
7.285,63.1805,-0.000320
7.302,63.1495,-0.000320
7.329,63.0978,-0.000320
7.348,63.0631,-0.000320
7.365,63.0348,-0.000320
7.381,63.0059,-0.000320
7.397,62.9764,-0.000320
7.413,62.9483,-0.000320
7.428,62.9213,-0.000320
7.444,62.8934,-0.000320
7.460,62.8657,-0.000320
7.476,62.8378,-0.000499
7.492,62.8107,-0.000499
7.509,62.7815,-0.000499
7.525,62.7569,-0.000499
7.540,62.7301,-0.000499
7.556,62.7038,-0.000499
7.572,62.6774,-0.000499
7.598,62.6348,-0.000499
7.614,62.6086,-0.000499
7.631,62.5822,-0.000499
7.654,62.5450,-0.000499
7.685,62.4978,-0.000499
7.701,62.4728,-0.000499
7.717,62.4477,-0.000499
7.748,62.4015,-0.000697
7.764,62.3776,-0.000697
7.794,62.3322,-0.000697
7.810,62.3089,-0.000697
7.843,62.2610,-0.000697
7.872,62.2188,-0.000697
7.902,62.1775,-0.000697
7.919,62.1541,-0.000697
7.934,62.1335,-0.000697
7.952,62.1096,-0.000697
7.980,62.0709,-0.000753
7.998,62.0472,-0.000753
8.015,62.0261,-0.000753
8.030,62.0058,-0.000753
8.046,61.9844,-0.000753
8.062,61.9647,-0.000753
8.079,61.9434,-0.000753
8.095,61.9237,-0.000753
8.111,61.9036,-0.000753
8.135,61.8734,-0.000753
8.152,61.8538,-0.000753
8.180,61.8201,-0.000753
8.198,61.7989,-0.000753
8.215,61.7800,-0.000753
8.230,61.7622,-0.000734
8.246,61.7436,-0.000734
8.263,61.7249,-0.000734
8.279,61.7071,-0.000734
8.304,61.6795,-0.000734
8.335,61.6467,-0.000734
8.365,61.6151,-0.000734
8.381,61.5988,-0.000734
8.412,61.5661,-0.000734
8.428,61.5510,-0.000734
8.458,61.5210,-0.000734
8.489,61.4914,-0.000772
8.520,61.4623,-0.000772
8.550,61.4343,-0.000772
8.575,61.4131,-0.000772
8.596,61.3943,-0.000772
8.614,61.3791,-0.000772
8.630,61.3658,-0.000772
8.646,61.3527,-0.000772
8.662,61.3395,-0.000772
8.686,61.3198,-0.000772
8.702,61.3068,-0.000772
8.718,61.2950,-0.000753
8.735,61.2817,-0.000753
8.750,61.2707,-0.000753
8.766,61.2583,-0.000753
8.782,61.2466,-0.000753
8.799,61.2346,-0.000753
8.817,61.2218,-0.000753
8.845,61.2030,-0.000753
8.862,61.1912,-0.000753
8.878,61.1805,-0.000753
8.894,61.1705,-0.000753
8.910,61.1604,-0.000753
8.926,61.1505,-0.000753
8.943,61.1402,-0.000753
8.958,61.1309,-0.000753
8.974,61.1219,-0.000678
8.990,61.1124,-0.000678
9.006,61.1036,-0.000678
9.022,61.0947,-0.000678
9.037,61.0865,-0.000678
9.055,61.0773,-0.000678
9.070,61.0695,-0.000678
9.086,61.0617,-0.000678
9.102,61.0539,-0.000678
9.118,61.0462,-0.000678
9.134,61.0389,-0.000678
9.150,61.0314,-0.000678
9.166,61.0246,-0.000678
9.182,61.0175,-0.000678
9.198,61.0108,-0.000678
9.214,61.0046,-0.000678
9.243,60.9931,-0.000640
9.261,60.9869,-0.000640
9.276,60.9811,-0.000640
9.292,60.9759,-0.000640
9.309,60.9700,-0.000640
9.339,60.9607,-0.000640
9.355,60.9560,-0.000640
9.370,60.9517,-0.000640
9.386,60.9473,-0.000640
9.402,60.9433,-0.000640
9.419,60.9390,-0.000640
9.441,60.9337,-0.000640
9.465,60.9286,-0.000640
9.483,60.9249,-0.000640
9.510,60.9199,-0.000668
9.530,60.9167,-0.000668
9.546,60.9144,-0.000668
9.562,60.9120,-0.000668
9.578,60.9099,-0.000668
9.594,60.9082,-0.000668
9.610,60.9064,-0.000668
9.626,60.9049,-0.000668
9.642,60.9037,-0.000668
9.658,60.9026,-0.000668
9.674,60.9017,-0.000668
9.690,60.9010,-0.000668
9.706,60.9005,-0.000697
9.722,60.9002,-0.000697
9.738,60.9001,-0.000697
9.754,60.9001,-0.000697
9.770,60.9001,-0.000697
9.797,60.9001,-0.000697
9.813,60.9001,-0.000697
9.828,60.9001,-0.000697
9.845,60.9001,-0.000697
9.862,60.9001,-0.000697
9.877,60.9001,-0.000697
9.893,60.9003,-0.000697
9.909,60.9007,-0.000697
9.931,60.9017,-0.000697
9.955,60.9031,-0.000650
9.972,60.9043,-0.000650
9.991,60.9060,-0.000650
10.017,60.9087,-0.000650
10.037,60.9110,-0.000650
10.053,60.9132,-0.000650
10.069,60.9157,-0.000650
10.094,60.9199,-0.000650
10.117,60.9239,-0.000650
10.133,60.9270,-0.000650
10.149,60.9302,-0.000650
10.165,60.9341,-0.000650
10.190,60.9398,-0.000650
10.217,60.9469,-0.000678
10.233,60.9512,-0.000678
10.263,60.9598,-0.000678
10.279,60.9647,-0.000678
10.295,60.9695,-0.000678
10.325,60.9798,-0.000678
10.354,60.9903,-0.000678
10.370,60.9962,-0.000678
10.387,61.0028,-0.000678
10.403,61.0089,-0.000678
10.419,61.0163,-0.000678
10.449,61.0286,-0.000678
10.465,61.0359,-0.000715
10.481,61.0433,-0.000715
10.498,61.0509,-0.000715
10.514,61.0587,-0.000715
10.529,61.0667,-0.000715
10.545,61.0746,-0.000715
10.562,61.0835,-0.000715
10.577,61.0915,-0.000715
10.595,61.1009,-0.000715
10.620,61.1155,-0.000715
10.641,61.1274,-0.000715
10.658,61.1377,-0.000715
10.681,61.1516,-0.000715
10.712,61.1707,-0.000715
10.743,61.1912,-0.000659
10.759,61.2023,-0.000659
10.790,61.2229,-0.000659
10.806,61.2341,-0.000659
10.821,61.2459,-0.000659
10.837,61.2567,-0.000659
10.860,61.2745,-0.000659
10.881,61.2902,-0.000659
10.897,61.3026,-0.000659
10.918,61.3190,-0.000659
10.934,61.3318,-0.000659
10.950,61.3448,-0.000659
10.966,61.3580,-0.000650
10.982,61.3714,-0.000650
10.998,61.3850,-0.000650
11.015,61.4003,-0.000650
11.031,61.4132,-0.000650
11.046,61.4268,-0.000650
11.062,61.4412,-0.000650
11.079,61.4563,-0.000650
11.095,61.4712,-0.000650
11.110,61.4855,-0.000650
11.126,61.5011,-0.000650
11.142,61.5162,-0.000650
11.159,61.5324,-0.000650
11.174,61.5475,-0.000650
11.191,61.5639,-0.000650
11.206,61.5800,-0.000650
11.223,61.5967,-0.000650
11.238,61.6126,-0.000678
11.254,61.6290,-0.000678
11.271,61.6468,-0.000678
11.286,61.6633,-0.000678
11.302,61.6809,-0.000678
11.318,61.6978,-0.000678
11.336,61.7184,-0.000678
11.361,61.7456,-0.000678
11.392,61.7822,-0.000678
11.414,61.8071,-0.000678
11.430,61.8266,-0.000678
11.454,61.8548,-0.000678
11.470,61.8727,-0.000678
11.485,61.8923,-0.000697
11.501,61.9116,-0.000697
11.518,61.9321,-0.000697
11.534,61.9519,-0.000697
11.549,61.9723,-0.000697
11.565,61.9921,-0.000697
11.584,62.0164,-0.000697
11.609,62.0498,-0.000697
11.629,62.0766,-0.000697
11.645,62.0985,-0.000697
11.661,62.1195,-0.000697
11.677,62.1408,-0.000697
11.693,62.1627,-0.000697
11.712,62.1891,-0.000697
11.731,62.2171,-0.000697
11.762,62.2608,-0.000697
11.778,62.2837,-0.000697
11.808,62.3271,-0.000697
11.824,62.3501,-0.000697
11.839,62.3734,-0.000697
11.870,62.4210,-0.000697
11.888,62.4477,-0.000697
11.916,62.4914,-0.000697
11.933,62.5170,-0.000697
11.951,62.5450,-0.000697
11.979,62.5889,-0.000697
12.009,62.6377,-0.000762
12.025,62.6654,-0.000762
12.041,62.6910,-0.000762
12.057,62.7162,-0.000762
12.073,62.7441,-0.000762
12.089,62.7694,-0.000762
12.105,62.7974,-0.000762
12.122,62.8262,-0.000762
12.138,62.8537,-0.000762
12.165,62.9001,-0.000762
12.186,62.9368,-0.000762
12.202,62.9641,-0.000762
12.228,63.0104,-0.000781
12.249,63.0484,-0.000781
12.265,63.0783,-0.000781
12.281,63.1071,-0.000781
12.297,63.1354,-0.000781
12.313,63.1654,-0.000781
12.329,63.1970,-0.000781
12.350,63.2352,-0.000781
12.366,63.2660,-0.000781
12.397,63.3243,-0.000781
12.428,63.3832,-0.000781
12.445,63.4173,-0.000781
12.476,63.4772,-0.000687
12.506,63.5373,-0.000687
12.521,63.5686,-0.000687
12.537,63.5992,-0.000687
12.565,63.6563,-0.000687
12.581,63.6893,-0.000687
12.597,63.7227,-0.000687
12.613,63.7549,-0.000687
12.629,63.7895,-0.000687
12.645,63.8230,-0.000687
12.668,63.8722,-0.000687
12.691,63.9197,-0.000687
12.709,63.9584,-0.000687
12.724,63.9906,-0.000593
12.742,64.0270,-0.000593
12.757,64.0582,-0.000593
12.772,64.0905,-0.000593
12.788,64.1232,-0.000593
12.805,64.1565,-0.000593
12.822,64.1906,-0.000593
12.837,64.2232,-0.000593
12.860,64.2672,-0.000593
12.891,64.3313,-0.000593
12.922,64.3914,-0.000593
12.953,64.4508,-0.000593
12.970,64.4836,-0.000442
13.001,64.5432,-0.000442
13.016,64.5702,-0.000442
13.047,64.6294,-0.000442
13.064,64.6599,-0.000442
13.086,64.7005,-0.000442
13.103,64.7308,-0.000442
13.119,64.7597,-0.000442
13.134,64.7875,-0.000442
13.151,64.8164,-0.000442
13.167,64.8448,-0.000442
13.182,64.8726,-0.000442
13.198,64.9006,-0.000442
13.214,64.9280,-0.000377
13.231,64.9569,-0.000377
13.246,64.9827,-0.000377
13.263,65.0109,-0.000377
13.278,65.0380,-0.000377
13.294,65.0643,-0.000377
13.312,65.0930,-0.000377
13.327,65.1178,-0.000377
13.342,65.1428,-0.000377
13.358,65.1686,-0.000377
13.376,65.1976,-0.000377
13.403,65.2399,-0.000377
13.423,65.2719,-0.000377
13.440,65.2991,-0.000377
13.466,65.3389,-0.000508
13.487,65.3703,-0.000508
13.502,65.3946,-0.000508
13.519,65.4195,-0.000508
13.543,65.4555,-0.000508
13.575,65.5021,-0.000508
13.590,65.5243,-0.000508
13.606,65.5460,-0.000508
13.627,65.5760,-0.000508
13.643,65.5986,-0.000508
13.658,65.6203,-0.000508
13.674,65.6430,-0.000508
13.690,65.6647,-0.000508
13.707,65.6868,-0.000508
13.722,65.7076,-0.000593
13.738,65.7294,-0.000593
13.754,65.7503,-0.000593
13.770,65.7716,-0.000593
13.786,65.7921,-0.000593
13.802,65.8127,-0.000593
13.818,65.8334,-0.000593
13.834,65.8533,-0.000593
13.850,65.8734,-0.000593
13.866,65.8933,-0.000593
13.883,65.9139,-0.000593
13.899,65.9330,-0.000593
13.914,65.9517,-0.000593
13.930,65.9707,-0.000593
13.947,65.9901,-0.000593
13.962,66.0090,-0.000725
13.978,66.0270,-0.000725
13.995,66.0462,-0.000725
14.025,66.0796,-0.000725
14.042,66.0990,-0.000725
14.060,66.1178,-0.000725
14.087,66.1472,-0.000725
14.107,66.1695,-0.000725
14.126,66.1894,-0.000725
14.151,66.2147,-0.000725
14.166,66.2298,-0.000725
14.182,66.2463,-0.000725
14.198,66.2618,-0.000725
14.214,66.2771,-0.000857
14.231,66.2934,-0.000857
14.246,66.3084,-0.000857
14.262,66.3231,-0.000857
14.278,66.3375,-0.000857
14.294,66.3522,-0.000857
14.311,66.3683,-0.000857
14.335,66.3886,-0.000857
14.366,66.4157,-0.000857
14.396,66.4415,-0.000857
14.412,66.4542,-0.000857
14.428,66.4671,-0.000857
14.457,66.4912,-0.000857
14.473,66.5035,-0.000904
14.504,66.5273,-0.000904
14.535,66.5495,-0.000904
14.552,66.5619,-0.000904
14.581,66.5832,-0.000904
14.598,66.5943,-0.000904
14.614,66.6048,-0.000904
14.630,66.6155,-0.000904
14.646,66.6261,-0.000904
14.662,66.6362,-0.000904
14.684,66.6499,-0.000904
14.699,66.6590,-0.000904
14.715,66.6686,-0.000951
14.731,66.6779,-0.000951
14.747,66.6870,-0.000951
14.763,66.6962,-0.000951
14.780,66.7053,-0.000951
14.795,66.7136,-0.000951
14.811,66.7219,-0.000951
14.827,66.7299,-0.000951
14.843,66.7380,-0.000951
14.859,66.7459,-0.000951
14.875,66.7538,-0.000951
14.891,66.7614,-0.000951
14.907,66.7683,-0.000951
14.924,66.7757,-0.000951
14.942,66.7836,-0.000951
14.967,66.7937,-0.001035
14.987,66.8016,-0.001035
15.003,66.8078,-0.001035
15.019,66.8137,-0.001035
15.035,66.8191,-0.001035
15.051,66.8248,-0.001035
15.068,66.8303,-0.001035
15.091,66.8377,-0.001035
15.107,66.8424,-0.001035
15.122,66.8469,-0.001035
15.138,66.8514,-0.001035
15.169,66.8593,-0.001035
15.200,66.8669,-0.001035
15.231,66.8733,-0.001120
15.262,66.8793,-0.001120
15.292,66.8842,-0.001120
15.307,66.8865,-0.001120
15.323,66.8887,-0.001120
15.339,66.8907,-0.001120
15.354,66.8924,-0.001120
15.378,66.8948,-0.001120
15.400,66.8965,-0.001120
15.418,66.8977,-0.001120
15.434,66.8986,-0.001120
15.451,66.8994,-0.001120
15.466,66.8997,-0.001205
15.483,66.9000,-0.001205
15.499,66.9001,-0.001205
15.515,66.9001,-0.001205
15.530,66.9001,-0.001205
15.547,66.9001,-0.001205
15.564,66.9001,-0.001205
15.580,66.9001,-0.001205
15.602,66.9001,-0.001205
15.633,66.9001,-0.001205
15.664,66.9001,-0.001205
15.695,66.9001,-0.001205
15.725,66.9001,-0.001205
15.749,66.9001,-0.001290
15.764,66.9001,-0.001290
15.780,66.9001,-0.001290
15.796,66.9001,-0.001290
15.813,66.9001,-0.001290
15.828,66.9001,-0.001290
15.844,66.9001,-0.001290
15.861,66.9001,-0.001290
15.885,66.9001,-0.001290
15.911,66.9001,-0.001290
15.941,66.9001,-0.001290
15.972,66.9001,-0.001214
15.989,66.9001,-0.001214
16.005,66.9001,-0.001214
16.021,66.9001,-0.001214
16.036,66.9001,-0.001214
16.054,66.9001,-0.001214
16.082,66.9001,-0.001214
16.101,66.9001,-0.001214
16.118,66.9001,-0.001214
16.145,66.9001,-0.001214
16.164,66.9001,-0.001214
16.180,66.9001,-0.001214
16.197,66.9001,-0.001214
16.212,66.9001,-0.001205
16.229,66.9001,-0.001205
16.245,66.9001,-0.001205
16.260,66.9001,-0.001205
16.276,66.9001,-0.001205
16.301,66.9001,-0.001205
16.329,66.9001,-0.001205
16.347,66.9001,-0.001205
16.364,66.9001,-0.001205
16.379,66.9001,-0.001205
16.396,66.9001,-0.001205
16.411,66.9001,-0.001205
16.427,66.9001,-0.001205
16.444,66.9001,-0.001205
16.459,66.9001,-0.001261
16.475,66.9001,-0.001261
16.492,66.9001,-0.001261
16.507,66.9001,-0.001261
16.523,66.9001,-0.001261
16.539,66.9001,-0.001261
16.556,66.9001,-0.001261
16.571,66.9001,-0.001261
16.587,66.9001,-0.001261
16.603,66.9001,-0.001261
16.620,66.9001,-0.001261
16.635,66.9001,-0.001261
16.651,66.9001,-0.001261
16.668,66.9001,-0.001261
16.698,66.9001,-0.001261
16.715,66.9001,-0.001290
16.731,66.9001,-0.001290
16.753,66.9001,-0.001290
16.775,66.9001,-0.001290
16.795,66.9001,-0.001290
16.811,66.9001,-0.001290
16.834,66.9001,-0.001290
16.851,66.9001,-0.001290
16.866,66.9001,-0.001290
16.883,66.9001,-0.001290
16.900,66.9001,-0.001290
16.929,66.9001,-0.001290
16.946,66.9001,-0.001290
16.963,66.9001,-0.001290
16.992,66.9001,-0.001233
17.010,66.9001,-0.001233
17.026,66.9001,-0.001233
17.042,66.9001,-0.001233
17.058,66.9001,-0.001233
17.074,66.9001,-0.001233
17.090,66.9001,-0.001233
17.106,66.9001,-0.001233
17.122,66.9001,-0.001233
17.138,66.9001,-0.001233
17.154,66.9001,-0.001233
17.170,66.9001,-0.001233
17.186,66.9001,-0.001233
17.202,66.9001,-0.001233
17.221,66.9001,-0.001233
17.240,66.9001,-0.001233
17.255,66.9001,-0.001139
17.286,66.9001,-0.001139
17.317,66.9001,-0.001139
17.332,66.9001,-0.001139
17.348,66.9001,-0.001139
17.365,66.9001,-0.001139
17.393,66.9001,-0.001139
17.409,66.9001,-0.001139
17.425,66.9001,-0.001139
17.441,66.9001,-0.001139
17.457,66.9001,-0.001139
17.473,66.9001,-0.001139
17.489,66.9001,-0.001139
17.505,66.9001,-0.001139
17.521,66.9001,-0.001139
17.537,66.9001,-0.001139
17.553,66.9001,-0.001139
17.569,66.9001,-0.001139
17.588,66.9001,-0.001139
17.611,66.9001,-0.001139
17.626,66.9001,-0.001139
17.643,66.9001,-0.001139
17.673,66.9001,-0.001139
17.704,66.9001,-0.001139
17.719,66.9001,-0.001139
17.750,66.9001,-0.001186
17.780,66.9001,-0.001186
17.796,66.9001,-0.001186
17.811,66.9001,-0.001186
17.841,66.9001,-0.001186
17.857,66.9001,-0.001186
17.873,66.9001,-0.001186
17.889,66.9001,-0.001186
17.905,66.9001,-0.001186
17.921,66.9001,-0.001186
17.947,66.9001,-0.001186
17.963,66.9001,-0.001186
17.978,66.9001,-0.001214
17.994,66.9001,-0.001214
18.011,66.9001,-0.001214
18.027,66.9001,-0.001214
18.042,66.9001,-0.001214
18.058,66.9001,-0.001214
18.075,66.9001,-0.001214
18.090,66.9001,-0.001214
18.107,66.9001,-0.001214
18.122,66.9001,-0.001214
18.138,66.9001,-0.001214
18.155,66.9001,-0.001214
18.181,66.9001,-0.001214
18.202,66.9001,-0.001214
18.219,66.9001,-0.001214
18.234,66.9001,-0.001214
18.250,66.9001,-0.001214
18.268,66.9001,-0.001214
18.291,66.9001,-0.001214
18.322,66.9001,-0.001214
18.353,66.9001,-0.001214
18.369,66.9001,-0.001214
18.385,66.9001,-0.001214
18.401,66.9001,-0.001214
18.432,66.9001,-0.001214
18.448,66.9001,-0.001214
18.472,66.9001,-0.001186
18.487,66.9001,-0.001186
18.503,66.9001,-0.001186
18.519,66.9001,-0.001186
18.535,66.9001,-0.001186
18.552,66.9001,-0.001186
18.568,66.9001,-0.001186
18.584,66.9001,-0.001186
18.599,66.9001,-0.001186
18.615,66.9001,-0.001186
18.631,66.9001,-0.001186
18.648,66.9001,-0.001186
18.664,66.9001,-0.001186
18.681,66.9001,-0.001186
18.696,66.9001,-0.001186
18.712,66.9001,-0.001186
18.727,66.9001,-0.001224
18.744,66.9001,-0.001224
18.760,66.9001,-0.001224
18.775,66.9001,-0.001224
18.791,66.9001,-0.001224
18.807,66.9001,-0.001224
18.824,66.9001,-0.001224
18.839,66.9001,-0.001224
18.855,66.9001,-0.001224
18.871,66.9001,-0.001224
18.889,66.9001,-0.001224
18.914,66.9001,-0.001224
18.935,66.9001,-0.001224
18.952,66.9001,-0.001224
18.968,66.9001,-0.001224
18.992,66.9001,-0.001224
19.012,66.9001,-0.001214
19.029,66.9001,-0.001214
19.044,66.9001,-0.001214
19.060,66.9001,-0.001214
19.076,66.9001,-0.001214
19.092,66.9001,-0.001214
19.108,66.9001,-0.001214
19.124,66.9001,-0.001214
19.141,66.9001,-0.001214
19.156,66.9001,-0.001214
19.172,66.9001,-0.001214
19.188,66.9001,-0.001214
19.205,66.9001,-0.001214
19.220,66.9001,-0.001148
19.236,66.9001,-0.001148
19.252,66.9001,-0.001148
19.268,66.9001,-0.001148
19.284,66.9001,-0.001148
19.300,66.9001,-0.001148
19.318,66.9001,-0.001148
19.347,66.9001,-0.001148
19.364,66.9001,-0.001148
19.380,66.9001,-0.001148
19.396,66.9001,-0.001148
19.412,66.9001,-0.001148
19.428,66.9001,-0.001148
19.444,66.9001,-0.001148
19.460,66.9001,-0.001148
19.476,66.9001,-0.001148
19.492,66.9001,-0.001148
19.508,66.9001,-0.001148
19.524,66.9001,-0.001148
19.540,66.9001,-0.001148
19.563,66.9001,-0.001148
19.579,66.9001,-0.001148
19.595,66.9001,-0.001148
19.611,66.9001,-0.001148
19.631,66.9001,-0.001148
19.656,66.9001,-0.001148
19.675,66.9001,-0.001148
19.692,66.9001,-0.001148
19.707,66.9001,-0.001148
19.723,66.9001,-0.001252
19.739,66.9001,-0.001252
19.758,66.9001,-0.001252
19.782,66.9001,-0.001252
19.803,66.9001,-0.001252
19.819,66.9001,-0.001252
19.835,66.9001,-0.001252
19.851,66.9001,-0.001252
19.867,66.9001,-0.001252
19.883,66.9001,-0.001252
19.899,66.9001,-0.001252
19.915,66.9001,-0.001252
19.931,66.9001,-0.001252
19.947,66.9001,-0.001252
19.963,66.9001,-0.001327
19.979,66.9001,-0.001327
19.995,66.9001,-0.001327
20.011,66.9001,-0.001327
20.027,66.9001,-0.001327
20.042,66.9001,-0.001327
20.059,66.9001,-0.001327
20.075,66.9001,-0.001327
20.091,66.9001,-0.001327
20.121,66.9001,-0.001327
20.137,66.9001,-0.001327
20.153,66.9001,-0.001327
20.169,66.9001,-0.001327
20.185,66.9000,-0.001327
20.201,66.8995,-0.001327
20.217,66.8990,-0.001403
20.233,66.8982,-0.001403
20.249,66.8972,-0.001403
20.265,66.8961,-0.001403
20.281,66.8949,-0.001403
20.297,66.8933,-0.001403
20.313,66.8915,-0.001403
20.329,66.8897,-0.001403
20.345,66.8876,-0.001403
20.361,66.8852,-0.001403
20.377,66.8826,-0.001403
20.393,66.8800,-0.001403
20.409,66.8773,-0.001403
20.425,66.8741,-0.001403
20.441,66.8708,-0.001403
20.457,66.8674,-0.001017
20.473,66.8638,-0.001017
20.489,66.8598,-0.001017
20.505,66.8558,-0.001017
20.521,66.8516,-0.001017
20.537,66.8473,-0.001017
20.553,66.8423,-0.001017
20.578,66.8347,-0.001017
20.601,66.8273,-0.001017
20.619,66.8215,-0.001017
20.649,66.8106,-0.001017
20.673,66.8018,-0.001017
20.688,66.7954,-0.001017
20.704,66.7890,0.000988
20.721,66.7823,0.000988
20.736,66.7755,0.000988
20.753,66.7684,0.000988
20.769,66.7611,0.000988
20.785,66.7538,0.000988
20.800,66.7461,0.000988
20.817,66.7383,0.000988
20.833,66.7303,0.000988
20.848,66.7223,0.000988
20.865,66.7134,0.000988
20.880,66.7051,0.000988
20.896,66.6965,0.000988
20.920,66.6828,0.000988
20.942,66.6699,0.000988
20.961,66.6591,0.005027
20.977,66.6492,0.005027
20.992,66.6395,0.005027
21.009,66.6294,0.005027
21.025,66.6186,0.005027
21.042,66.6075,0.005027
21.066,66.5912,0.005027
21.097,66.5698,0.005027
21.112,66.5590,0.005027
21.127,66.5479,0.005027
21.143,66.5358,0.005027
21.159,66.5246,0.005027
21.175,66.5128,0.005027
21.205,66.4881,0.005027
21.226,66.4720,0.010204
21.242,66.4588,0.010204
21.258,66.4458,0.010204
21.275,66.4313,0.010204
21.291,66.4186,0.010204
21.306,66.4054,0.010204
21.322,66.3914,0.010204
21.339,66.3760,0.010204
21.357,66.3597,0.010204
21.372,66.3462,0.010204
21.388,66.3320,0.010204
21.405,66.3163,0.010204
21.420,66.3021,0.010204
21.450,66.2730,0.010204
21.467,66.2565,0.010204
21.483,66.2405,0.010204
21.498,66.2245,0.005977
21.514,66.2090,0.005977
21.531,66.1916,0.005977
21.546,66.1758,0.005977
21.562,66.1581,0.005977
21.579,66.1415,0.005977
21.595,66.1237,0.005977
21.610,66.1072,0.005977
21.627,66.0884,0.005977
21.642,66.0716,0.005977
21.659,66.0525,0.005977
21.674,66.0355,0.005977
21.690,66.0173,0.005977
21.706,65.9976,0.005977
21.722,65.9795,0.005977
21.738,65.9607,0.005977
21.754,65.9414,0.005977
21.778,65.9131,-0.000857
21.806,65.8777,-0.000857
21.824,65.8556,-0.000857
21.842,65.8328,-0.000857
21.869,65.7990,-0.000857
21.888,65.7730,-0.000857
21.905,65.7518,-0.000857
21.920,65.7308,-0.000857
21.937,65.7095,-0.000857
21.953,65.6870,-0.000857
21.969,65.6643,-0.000857
21.992,65.6335,-0.000857
22.022,65.5919,-0.000725
22.054,65.5473,-0.000725
22.085,65.5022,-0.000725
22.101,65.4787,-0.000725
22.131,65.4323,-0.000725
22.162,65.3866,-0.000725
22.178,65.3623,-0.000725
22.194,65.3386,-0.000725
22.211,65.3117,-0.000725
22.241,65.2655,-0.000631
22.272,65.2170,-0.000631
22.288,65.1911,-0.000631
22.304,65.1649,-0.000631
22.332,65.1195,-0.000631
22.348,65.0928,-0.000631
22.364,65.0659,-0.000631
22.380,65.0394,-0.000631
22.396,65.0120,-0.000631
22.412,64.9848,-0.000631
22.428,64.9581,-0.000631
22.445,64.9290,-0.000631
22.461,64.9001,-0.000631
22.486,64.8563,-0.000631
22.517,64.8024,-0.000537
22.548,64.7466,-0.000537
22.579,64.6909,-0.000537
22.609,64.6341,-0.000537
22.640,64.5766,-0.000537
22.666,64.5291,-0.000537
22.684,64.4939,-0.000537
22.700,64.4645,-0.000537
22.716,64.4319,-0.000537
22.731,64.4026,-0.000452
22.748,64.3706,-0.000452
22.764,64.3385,-0.000452
22.780,64.3079,-0.000452
22.796,64.2759,-0.000452
22.812,64.2446,-0.000452
22.831,64.2036,-0.000452
22.857,64.1526,-0.000452
22.879,64.1082,-0.000452
22.904,64.0555,-0.000452
22.921,64.0214,-0.000452
22.951,63.9584,-0.000452
22.969,63.9209,-0.000452
22.984,63.8871,-0.000452
23.000,63.8542,-0.000339
23.016,63.8204,-0.000339
23.035,63.7804,-0.000339
23.061,63.7255,-0.000339
23.080,63.6854,-0.000339
23.096,63.6528,-0.000339
23.112,63.6201,-0.000339
23.129,63.5856,-0.000339
23.144,63.5553,-0.000339
23.161,63.5205,-0.000339
23.176,63.4900,-0.000339
23.191,63.4591,-0.000339
23.208,63.4274,-0.000339
23.224,63.3957,-0.000339
23.240,63.3646,-0.000339
23.256,63.3337,-0.000339
23.272,63.2996,-0.000339
23.288,63.2711,-0.000339
23.303,63.2417,-0.000339
23.320,63.2103,-0.000339
23.336,63.1800,-0.000339
23.352,63.1500,-0.000339
23.367,63.1212,-0.000339
23.384,63.0908,-0.000339
23.400,63.0610,-0.000339
23.415,63.0327,-0.000339
23.431,63.0038,-0.000339
23.448,62.9743,-0.000339
23.465,62.9426,-0.000339
23.480,62.9160,-0.000339
23.496,62.8879,-0.000489
23.511,62.8623,-0.000489
23.527,62.8330,-0.000489
23.544,62.8056,-0.000489
23.560,62.7776,-0.000489
23.575,62.7519,-0.000489
23.592,62.7235,-0.000489
23.607,62.6978,-0.000489
23.624,62.6695,-0.000489
23.650,62.6281,-0.000489
23.665,62.6024,-0.000489
23.696,62.5526,-0.000489
23.712,62.5278,-0.000489
23.742,62.4778,-0.000584
23.758,62.4541,-0.000584
23.789,62.4067,-0.000584
23.819,62.3607,-0.000584
23.850,62.3140,-0.000584
23.865,62.2906,-0.000584
23.881,62.2689,-0.000584
23.898,62.2439,-0.000584
23.927,62.2015,-0.000584
23.956,62.1617,-0.000584
23.972,62.1383,-0.000584
23.987,62.1170,-0.000687
24.003,62.0953,-0.000687
24.020,62.0719,-0.000687
24.035,62.0518,-0.000687
24.051,62.0302,-0.000687
24.067,62.0089,-0.000687
24.084,61.9870,-0.000687
24.099,61.9671,-0.000687
24.115,61.9460,-0.000687
24.132,61.9253,-0.000687
24.148,61.9044,-0.000687
24.163,61.8851,-0.000687
24.180,61.8649,-0.000687
24.195,61.8457,-0.000687
24.212,61.8247,-0.000687
24.227,61.8067,-0.000687
24.243,61.7874,-0.000668
24.259,61.7688,-0.000668
24.276,61.7497,-0.000668
24.291,61.7314,-0.000668
24.307,61.7131,-0.000668
24.323,61.6947,-0.000668
24.339,61.6761,-0.000668
24.355,61.6590,-0.000668
24.371,61.6410,-0.000668
24.387,61.6239,-0.000668
24.404,61.6062,-0.000668
24.420,61.5894,-0.000668
24.435,61.5729,-0.000668
24.451,61.5553,-0.000668
24.468,61.5386,-0.000668
24.483,61.5234,-0.000668
24.500,61.5071,-0.000668
24.515,61.4912,-0.000687
24.532,61.4753,-0.000687
24.547,61.4603,-0.000687
24.563,61.4452,-0.000687
24.580,61.4291,-0.000687
24.595,61.4149,-0.000687
24.611,61.4007,-0.000687
24.627,61.3858,-0.000687
24.643,61.3713,-0.000687
24.659,61.3575,-0.000687
24.675,61.3437,-0.000687
24.691,61.3300,-0.000687
24.707,61.3161,-0.000687
24.723,61.3032,-0.000687
24.739,61.2899,-0.000762
24.755,61.2770,-0.000762
24.771,61.2642,-0.000762
24.787,61.2515,-0.000762
24.803,61.2394,-0.000762
24.819,61.2271,-0.000762
24.835,61.2150,-0.000762
24.851,61.2033,-0.000762
24.867,61.1914,-0.000762
24.883,61.1801,-0.000762
24.899,61.1690,-0.000762
24.915,61.1582,-0.000762
24.931,61.1470,-0.000762
24.947,61.1366,-0.000762
24.963,61.1261,-0.000762
24.979,61.1155,-0.000762
25.010,61.0963,-0.000725
25.025,61.0875,-0.000725
25.041,61.0782,-0.000725
25.057,61.0689,-0.000725
25.074,61.0591,-0.000725
25.089,61.0507,-0.000725
25.105,61.0420,-0.000725
25.121,61.0335,-0.000725
25.140,61.0230,-0.000725
25.164,61.0115,-0.000725
25.185,61.0013,-0.000725
25.201,60.9936,-0.000725
25.217,60.9862,-0.000725
25.233,60.9792,-0.000640
25.249,60.9724,-0.000640
25.266,60.9653,-0.000640
25.281,60.9590,-0.000640
25.297,60.9523,-0.000640
25.313,60.9462,-0.000640
25.333,60.9384,-0.000640
25.349,60.9330,-0.000640
25.366,60.9270,-0.000640
25.396,60.9170,-0.000640
25.427,60.9078,-0.000640
25.444,60.9027,-0.000640
25.474,60.8946,-0.000612
25.489,60.8908,-0.000612
25.506,60.8867,-0.000612
25.537,60.8799,-0.000612
25.566,60.8739,-0.000612
25.582,60.8710,-0.000612
25.598,60.8683,-0.000612
25.614,60.8657,-0.000612
25.630,60.8634,-0.000612
25.646,60.8612,-0.000612
25.662,60.8592,-0.000612
25.678,60.8573,-0.000612
25.699,60.8552,-0.000612
25.721,60.8536,-0.000612
25.741,60.8522,-0.000612
25.758,60.8515,-0.000612
25.774,60.8509,-0.000612
25.790,60.8504,-0.000612
25.806,60.8501,-0.000612
25.822,60.8501,-0.000612
25.838,60.8501,-0.000612
25.854,60.8501,-0.000612
25.870,60.8501,-0.000612
25.886,60.8501,-0.000612
25.901,60.8501,-0.000612
25.918,60.8501,-0.000612
25.934,60.8502,-0.000612
25.950,60.8505,-0.000612
25.965,60.8510,-0.000584
25.982,60.8517,-0.000584
25.997,60.8526,-0.000584
26.013,60.8537,-0.000584
26.029,60.8550,-0.000584
26.047,60.8566,-0.000584
26.068,60.8589,-0.000584
26.093,60.8619,-0.000584
26.109,60.8641,-0.000584
26.124,60.8665,-0.000584
26.141,60.8692,-0.000584
26.156,60.8719,-0.000584
26.172,60.8749,-0.000584
26.189,60.8783,-0.000584
26.205,60.8816,-0.000584
26.220,60.8851,-0.000697
26.237,60.8889,-0.000697
26.253,60.8930,-0.000697
26.268,60.8970,-0.000697
26.284,60.9013,-0.000697
26.301,60.9060,-0.000697
26.317,60.9109,-0.000697
26.333,60.9157,-0.000697
26.348,60.9207,-0.000697
26.364,60.9260,-0.000697
26.381,60.9316,-0.000697
26.396,60.9373,-0.000697
26.413,60.9434,-0.000697
26.428,60.9493,-0.000697
26.445,60.9558,-0.000697
26.460,60.9621,-0.000734
26.476,60.9688,-0.000734
26.500,60.9792,-0.000734
26.523,60.9891,-0.000734
26.541,60.9976,-0.000734
26.559,61.0069,-0.000734
26.584,61.0188,-0.000734
26.605,61.0293,-0.000734
26.621,61.0380,-0.000734
26.636,61.0463,-0.000734
26.653,61.0555,-0.000734
26.669,61.0643,-0.000734
26.685,61.0737,-0.000734
26.701,61.0832,-0.000734
26.726,61.0979,-0.000612
26.756,61.1174,-0.000612
26.786,61.1365,-0.000612
26.802,61.1470,-0.000612
26.833,61.1679,-0.000612
26.864,61.1899,-0.000612
26.881,61.2018,-0.000612
26.911,61.2245,-0.000612
26.942,61.2489,-0.000612
26.958,61.2608,-0.000574
26.974,61.2734,-0.000574
26.990,61.2867,-0.000574
27.020,61.3120,-0.000574
27.036,61.3245,-0.000574
27.054,61.3405,-0.000574
27.083,61.3654,-0.000574
27.100,61.3807,-0.000574
27.116,61.3952,-0.000574
27.138,61.4154,-0.000574
27.155,61.4305,-0.000574
27.170,61.4456,-0.000574
27.186,61.4602,-0.000574
27.203,61.4763,-0.000574
27.218,61.4913,-0.000612
27.234,61.5072,-0.000612
27.250,61.5241,-0.000612
27.266,61.5396,-0.000612
27.283,61.5567,-0.000612
27.298,61.5724,-0.000612
27.315,61.5907,-0.000612
27.336,61.6134,-0.000612
27.363,61.6421,-0.000612
27.378,61.6591,-0.000612
27.395,61.6771,-0.000612
27.410,61.6947,-0.000612
27.426,61.7126,-0.000612
27.444,61.7333,-0.000612
27.459,61.7531,-0.000612
27.487,61.7834,-0.000640
27.506,61.8073,-0.000640
27.522,61.8261,-0.000640
27.538,61.8457,-0.000640
27.554,61.8648,-0.000640
27.570,61.8857,-0.000640
27.586,61.9053,-0.000640
27.602,61.9252,-0.000640
27.618,61.9464,-0.000640
27.634,61.9677,-0.000640
27.650,61.9878,-0.000640
27.666,62.0096,-0.000640
27.689,62.0397,-0.000640
27.705,62.0618,-0.000640
27.721,62.0828,-0.000687
27.737,62.1045,-0.000687
27.755,62.1290,-0.000687
27.773,62.1540,-0.000687
27.796,62.1880,-0.000687
27.819,62.2192,-0.000687
27.843,62.2553,-0.000687
27.873,62.2995,-0.000687
27.904,62.3453,-0.000687
27.935,62.3921,-0.000687
27.966,62.4396,-0.000678
27.997,62.4891,-0.000678
28.027,62.5363,-0.000678
28.043,62.5631,-0.000678
28.074,62.6121,-0.000678
28.104,62.6618,-0.000678
28.121,62.6904,-0.000678
28.137,62.7170,-0.000678
28.153,62.7427,-0.000678
28.169,62.7700,-0.000678
28.185,62.7984,-0.000678
28.201,62.8253,-0.000678
28.217,62.8540,-0.000678
28.242,62.8965,-0.000697
28.258,62.9253,-0.000697
28.274,62.9542,-0.000697
28.290,62.9816,-0.000697
28.311,63.0209,-0.000697
28.337,63.0673,-0.000697
28.354,63.0983,-0.000697
28.370,63.1292,-0.000697
28.386,63.1586,-0.000697
28.402,63.1882,-0.000697
28.418,63.2181,-0.000697
28.434,63.2500,-0.000697
28.450,63.2789,-0.000697
28.466,63.3104,-0.000781
28.482,63.3421,-0.000781
28.497,63.3714,-0.000781
28.514,63.4036,-0.000781
28.529,63.4343,-0.000781
28.546,63.4670,-0.000781
28.562,63.5001,-0.000781
28.578,63.5315,-0.000781
28.594,63.5624,-0.000781
28.610,63.5955,-0.000781
28.626,63.6285,-0.000781
28.641,63.6605,-0.000781
28.658,63.6945,-0.000781
28.673,63.7273,-0.000781
28.690,63.7613,-0.000781
28.705,63.7943,-0.000612
28.722,63.8288,-0.000612
28.738,63.8620,-0.000612
28.753,63.8966,-0.000612
28.770,63.9310,-0.000612
28.797,63.9864,-0.000612
28.812,64.0198,-0.000612
28.828,64.0520,-0.000612
28.846,64.0879,-0.000612
28.861,64.1204,-0.000612
28.876,64.1504,-0.000612
28.893,64.1834,-0.000612
28.908,64.2146,-0.000612
28.926,64.2491,-0.000612
28.941,64.2796,-0.000612
28.956,64.3099,-0.000442
28.972,64.3408,-0.000442
28.990,64.3759,-0.000442
29.017,64.4288,-0.000442
29.036,64.4639,-0.000442
29.052,64.4954,-0.000442
29.068,64.5255,-0.000442
29.085,64.5548,-0.000442
29.101,64.5848,-0.000442
29.117,64.6144,-0.000442
29.132,64.6436,-0.000442
29.148,64.6719,-0.000442
29.165,64.7014,-0.000442
29.181,64.7308,-0.000442
29.196,64.7583,-0.000442
29.212,64.7867,-0.000395
29.228,64.8148,-0.000395
29.245,64.8434,-0.000395
29.260,64.8706,-0.000395
29.276,64.8981,-0.000395
29.293,64.9278,-0.000395
29.323,64.9781,-0.000395
29.340,65.0061,-0.000395
29.355,65.0327,-0.000395
29.372,65.0593,-0.000395
29.387,65.0842,-0.000395
29.403,65.1107,-0.000395
29.421,65.1386,-0.000395
29.448,65.1826,-0.000395
29.468,65.2133,-0.000442
29.483,65.2378,-0.000442
29.499,65.2629,-0.000442
29.516,65.2879,-0.000442
29.531,65.3129,-0.000442
29.548,65.3375,-0.000442
29.564,65.3611,-0.000442
29.587,65.3966,-0.000442
29.618,65.4407,-0.000442
29.648,65.4854,-0.000442
29.679,65.5288,-0.000442
29.694,65.5520,-0.000442
29.726,65.5949,-0.000442
29.742,65.6167,-0.000584
29.772,65.6588,-0.000584
29.788,65.6783,-0.000584
29.803,65.6987,-0.000584
29.819,65.7196,-0.000584
29.835,65.7415,-0.000584
29.858,65.7706,-0.000584
29.875,65.7912,-0.000584
29.890,65.8108,-0.000584
29.906,65.8305,-0.000584
29.922,65.8507,-0.000584
29.938,65.8701,-0.000584
29.954,65.8897,-0.000584
29.971,65.9103,-0.000734
29.989,65.9312,-0.000734
30.004,65.9501,-0.000734
30.035,65.9849,-0.000734
30.051,66.0034,-0.000734
30.066,66.0202,-0.000734
30.083,66.0386,-0.000734
30.105,66.0634,-0.000734
30.129,66.0892,-0.000734
30.146,66.1075,-0.000734
30.162,66.1252,-0.000734
30.178,66.1408,-0.000734
30.194,66.1571,-0.000734
30.210,66.1732,-0.000866
30.226,66.1903,-0.000866
30.242,66.2059,-0.000866
30.258,66.2208,-0.000866
30.274,66.2363,-0.000866
30.291,66.2527,-0.000866
30.315,66.2754,-0.000866
30.330,66.2902,-0.000866
30.362,66.3187,-0.000866
30.392,66.3456,-0.000866
30.413,66.3630,-0.000866
30.428,66.3760,-0.000866
30.444,66.3894,-0.000866
30.460,66.4025,-0.000866
30.477,66.4169,-0.000866
30.500,66.4349,-0.000866
30.516,66.4475,-0.000885
30.532,66.4606,-0.000885
30.562,66.4830,-0.000885
30.592,66.5055,-0.000885
30.608,66.5162,-0.000885
30.624,66.5274,-0.000885
30.640,66.5383,-0.000885
30.670,66.5590,-0.000885
30.701,66.5790,-0.000885
30.716,66.5887,-0.000885
30.732,66.5988,-0.000885
30.748,66.6083,-0.000922
30.764,66.6178,-0.000922
30.780,66.6271,-0.000922
30.796,66.6366,-0.000922
30.812,66.6457,-0.000922
30.828,66.6543,-0.000922
30.844,66.6632,-0.000922
30.860,66.6713,-0.000922
30.876,66.6796,-0.000922
30.892,66.6875,-0.000922
30.908,66.6953,-0.000922
30.924,66.7032,-0.000922
30.940,66.7103,-0.000922
30.964,66.7214,-0.000922
30.979,66.7280,-0.000922
30.995,66.7347,-0.001017
31.011,66.7412,-0.001017
31.028,66.7478,-0.001017
31.043,66.7540,-0.001017
31.059,66.7598,-0.001017
31.075,66.7655,-0.001017
31.091,66.7712,-0.001017
31.107,66.7768,-0.001017
31.122,66.7818,-0.001017
31.139,66.7870,-0.001017
31.155,66.7920,-0.001017
31.171,66.7965,-0.001017
31.187,66.8010,-0.001017
31.203,66.8052,-0.001017
31.218,66.8092,-0.001017
31.235,66.8133,-0.001017
31.251,66.8168,-0.001130
31.266,66.8202,-0.001130
31.283,66.8237,-0.001130
31.299,66.8267,-0.001130
31.315,66.8297,-0.001130
31.331,66.8324,-0.001130
31.346,66.8349,-0.001130
31.362,66.8372,-0.001130
31.379,66.8395,-0.001130
31.395,66.8413,-0.001130
31.411,66.8431,-0.001130
31.427,66.8447,-0.001130
31.442,66.8460,-0.001130
31.462,66.8474,-0.001130
31.489,66.8488,-0.001130
31.521,66.8499,-0.001167
31.537,66.8501,-0.001167
31.553,66.8501,-0.001167
31.570,66.8501,-0.001167
31.590,66.8501,-0.001167
31.605,66.8501,-0.001167
31.628,66.8501,-0.001167
31.649,66.8501,-0.001167
31.666,66.8501,-0.001167
31.691,66.8501,-0.001167
31.721,66.8501,-0.001167
31.737,66.8501,-0.001167
31.768,66.8501,-0.001195
31.799,66.8501,-0.001195
31.830,66.8501,-0.001195
31.846,66.8501,-0.001195
31.877,66.8501,-0.001195
31.892,66.8501,-0.001195
31.908,66.8501,-0.001195
31.939,66.8501,-0.001195
31.969,66.8501,-0.001195
31.985,66.8501,-0.001224
32.000,66.8501,-0.001224
32.017,66.8501,-0.001224
32.032,66.8501,-0.001224
32.048,66.8501,-0.001224
32.077,66.8501,-0.001224
32.092,66.8501,-0.001224
32.108,66.8501,-0.001224
32.123,66.8501,-0.001224
32.140,66.8501,-0.001224
32.156,66.8501,-0.001224
32.172,66.8501,-0.001224
32.187,66.8501,-0.001224
32.205,66.8501,-0.001224
32.220,66.8501,-0.001224
32.236,66.8501,-0.001195
32.251,66.8501,-0.001195
32.270,66.8501,-0.001195
32.294,66.8501,-0.001195
32.309,66.8501,-0.001195
32.325,66.8501,-0.001195
32.355,66.8501,-0.001195
32.387,66.8501,-0.001195
32.402,66.8501,-0.001195
32.418,66.8501,-0.001195
32.449,66.8501,-0.001195
32.479,66.8501,-0.001177
32.510,66.8501,-0.001177
32.526,66.8501,-0.001177
32.542,66.8501,-0.001177
32.557,66.8501,-0.001177
32.572,66.8501,-0.001177
32.588,66.8501,-0.001177
32.603,66.8501,-0.001177
32.631,66.8501,-0.001177
32.648,66.8501,-0.001177
32.664,66.8501,-0.001177
32.679,66.8501,-0.001177
32.704,66.8501,-0.001177
32.726,66.8501,-0.001177
32.743,66.8501,-0.001186
32.759,66.8501,-0.001186
32.775,66.8501,-0.001186
32.792,66.8501,-0.001186
32.807,66.8501,-0.001186
32.823,66.8501,-0.001186
32.840,66.8501,-0.001186
32.856,66.8501,-0.001186
32.871,66.8501,-0.001186
32.888,66.8501,-0.001186
32.904,66.8501,-0.001186
32.919,66.8501,-0.001186
32.935,66.8501,-0.001186
32.952,66.8501,-0.001186
32.967,66.8501,-0.001158
32.983,66.8501,-0.001158
32.999,66.8501,-0.001158
33.024,66.8501,-0.001158
33.050,66.8501,-0.001158
33.081,66.8501,-0.001158
33.104,66.8501,-0.001158
33.127,66.8501,-0.001158
33.144,66.8501,-0.001158
33.159,66.8501,-0.001158
33.188,66.8501,-0.001158
33.205,66.8501,-0.001158
33.235,66.8501,-0.001139
33.251,66.8501,-0.001139
33.267,66.8501,-0.001139
33.284,66.8501,-0.001139
33.299,66.8501,-0.001139
33.315,66.8501,-0.001139
33.331,66.8501,-0.001139
33.347,66.8501,-0.001139
33.363,66.8501,-0.001139
33.380,66.8501,-0.001139
33.395,66.8501,-0.001139
33.411,66.8501,-0.001139
33.427,66.8501,-0.001139
33.443,66.8501,-0.001139
33.459,66.8501,-0.001139
33.475,66.8501,-0.001158
33.491,66.8501,-0.001158
33.507,66.8501,-0.001158
33.523,66.8501,-0.001158
33.539,66.8501,-0.001158
33.555,66.8501,-0.001158
33.572,66.8501,-0.001158
33.592,66.8501,-0.001158
33.607,66.8501,-0.001158
33.623,66.8501,-0.001158
33.639,66.8501,-0.001158
33.670,66.8501,-0.001158
33.700,66.8501,-0.001158
33.731,66.8501,-0.001205
33.747,66.8501,-0.001205
33.764,66.8501,-0.001205
33.793,66.8501,-0.001205
33.817,66.8501,-0.001205
33.840,66.8501,-0.001205
33.859,66.8501,-0.001205
33.876,66.8501,-0.001205
33.903,66.8501,-0.001205
33.923,66.8501,-0.001205
33.939,66.8501,-0.001205
33.955,66.8501,-0.001205
33.971,66.8501,-0.001214
33.987,66.8501,-0.001214
34.003,66.8501,-0.001214
34.019,66.8501,-0.001214
34.035,66.8501,-0.001214
34.051,66.8501,-0.001214
34.067,66.8501,-0.001214
34.083,66.8501,-0.001214
34.099,66.8501,-0.001214
34.115,66.8501,-0.001214
34.131,66.8501,-0.001214
34.147,66.8501,-0.001214
34.163,66.8501,-0.001214
34.179,66.8501,-0.001214
34.195,66.8501,-0.001214
34.211,66.8501,-0.001139
34.227,66.8501,-0.001139
34.243,66.8501,-0.001139
34.268,66.8501,-0.001139
34.289,66.8501,-0.001139
34.320,66.8501,-0.001139
34.350,66.8501,-0.001139
34.381,66.8501,-0.001139
34.411,66.8501,-0.001139
34.427,66.8501,-0.001139
34.442,66.8501,-0.001139
34.466,66.8501,-0.001139
34.489,66.8501,-0.001158
34.507,66.8501,-0.001158
34.524,66.8501,-0.001158
34.551,66.8501,-0.001158
34.571,66.8501,-0.001158
34.587,66.8501,-0.001158
34.603,66.8501,-0.001158
34.618,66.8501,-0.001158
34.634,66.8501,-0.001158
34.651,66.8501,-0.001158
34.666,66.8501,-0.001158
34.682,66.8501,-0.001158
34.699,66.8501,-0.001158
34.715,66.8501,-0.001158
34.730,66.8501,-0.001205
34.747,66.8501,-0.001205
34.763,66.8501,-0.001205
34.779,66.8501,-0.001205
34.794,66.8501,-0.001205
34.824,66.8501,-0.001205
34.839,66.8501,-0.001205
34.855,66.8501,-0.001205
34.872,66.8501,-0.001205
34.887,66.8501,-0.001205
34.903,66.8501,-0.001205
34.919,66.8501,-0.001205
34.936,66.8501,-0.001205
34.951,66.8501,-0.001205
34.967,66.8501,-0.001205
34.984,66.8501,-0.001195
34.999,66.8501,-0.001195
35.018,66.8501,-0.001195
35.042,66.8501,-0.001195
35.058,66.8501,-0.001195
35.089,66.8501,-0.001195
35.120,66.8501,-0.001195
35.137,66.8501,-0.001195
35.167,66.8501,-0.001195
35.183,66.8501,-0.001195
35.214,66.8501,-0.001195
35.230,66.8501,-0.001195
35.260,66.8501,-0.001158
35.276,66.8501,-0.001158
35.292,66.8501,-0.001158
35.308,66.8501,-0.001158
35.324,66.8501,-0.001158
35.349,66.8501,-0.001158
35.365,66.8501,-0.001158
35.380,66.8501,-0.001158
35.397,66.8501,-0.001158
35.412,66.8501,-0.001158
35.428,66.8501,-0.001158
35.445,66.8501,-0.001158
35.460,66.8501,-0.001158
35.477,66.8501,-0.001167
35.492,66.8501,-0.001167
35.509,66.8501,-0.001167
35.525,66.8501,-0.001167
35.540,66.8501,-0.001167
35.556,66.8501,-0.001167
35.573,66.8501,-0.001167
35.589,66.8501,-0.001167
35.604,66.8501,-0.001167
35.620,66.8501,-0.001167
35.639,66.8501,-0.001167
35.664,66.8501,-0.001167
35.684,66.8501,-0.001167
35.700,66.8501,-0.001167
35.716,66.8501,-0.001167
35.732,66.8501,-0.001224
35.749,66.8501,-0.001224
35.765,66.8501,-0.001224
35.781,66.8501,-0.001224
35.796,66.8501,-0.001224
35.812,66.8501,-0.001224
35.834,66.8501,-0.001224
35.866,66.8501,-0.001224
35.892,66.8501,-0.001224
35.912,66.8501,-0.001224
35.927,66.8501,-0.001224
35.943,66.8501,-0.001224
35.974,66.8501,-0.001252
35.990,66.8501,-0.001252
36.020,66.8501,-0.001252
36.036,66.8501,-0.001252
36.051,66.8501,-0.001252
36.068,66.8501,-0.001252
36.098,66.8501,-0.001252
36.115,66.8501,-0.001252
36.132,66.8501,-0.001252
36.147,66.8501,-0.001252
36.163,66.8501,-0.001252
36.179,66.8501,-0.001252
36.196,66.8501,-0.001252
36.211,66.8501,-0.001252
36.228,66.8501,-0.001327
36.243,66.8501,-0.001327
36.259,66.8499,-0.001327
36.275,66.8496,-0.001327
36.291,66.8490,-0.001327
36.307,66.8483,-0.001327
36.323,66.8473,-0.001327
36.339,66.8463,-0.001327
36.355,66.8449,-0.001327
36.371,66.8433,-0.001327
36.387,66.8416,-0.001327
36.403,66.8398,-0.001327
36.419,66.8377,-0.001327
36.435,66.8354,-0.001327
36.451,66.8328,-0.001327
36.467,66.8302,-0.001186
36.483,66.8273,-0.001186
36.499,66.8242,-0.001186
36.515,66.8210,-0.001186
36.531,66.8175,-0.001186
36.547,66.8139,-0.001186
36.564,66.8098,-0.001186
36.579,66.8057,-0.001186
36.595,66.8018,-0.001186
36.611,66.7973,-0.001186
36.627,66.7928,-0.001186
36.643,66.7880,-0.001186
36.659,66.7827,-0.001186
36.675,66.7778,-0.001186
36.694,66.7712,-0.001186
36.716,66.7634,-0.001186
36.747,66.7521,0.000254
36.777,66.7399,0.000254
36.807,66.7273,0.000254
36.824,66.7200,0.000254
36.854,66.7065,0.000254
36.870,66.6987,0.000254
36.901,66.6831,0.000254
36.932,66.6676,0.000254
36.948,66.6592,0.000254
36.963,66.6508,0.000254
36.993,66.6341,0.003728
37.009,66.6246,0.003728
37.025,66.6153,0.003728
37.041,66.6057,0.003728
37.060,66.5935,0.003728
37.087,66.5774,0.003728
37.105,66.5654,0.003728
37.122,66.5541,0.003728
37.149,66.5357,0.003728
37.169,66.5221,0.003728
37.187,66.5093,0.003728
37.202,66.4979,0.003728
37.226,66.4808,0.008613
37.256,66.4576,0.008613
37.287,66.4337,0.008613
37.302,66.4210,0.008613
37.333,66.3958,0.008613
37.349,66.3827,0.008613
37.379,66.3571,0.008613
37.409,66.3298,0.008613
37.426,66.3160,0.008613
37.456,66.2885,0.005253
37.473,66.2725,0.005253
37.489,66.2574,0.005253
37.505,66.2414,0.005253
37.534,66.2145,0.005253
37.552,66.1956,0.005253
37.569,66.1793,0.005253
37.585,66.1629,0.005253
37.601,66.1460,0.005253
37.617,66.1302,0.005253
37.633,66.1133,0.005253
37.648,66.0967,0.005253
37.664,66.0797,0.005253
37.682,66.0606,0.005253
37.704,66.0359,0.005253
37.720,66.0189,-0.000838
37.736,66.0008,-0.000838
37.766,65.9651,-0.000838
37.782,65.9475,-0.000838
37.798,65.9285,-0.000838
37.829,65.8914,-0.000838
37.845,65.8727,-0.000838
37.875,65.8345,-0.000838
37.905,65.7973,-0.000838
37.937,65.7572,-0.000838
37.953,65.7368,-0.000838
37.968,65.7157,-0.000772
37.985,65.6945,-0.000772
38.001,65.6733,-0.000772
38.017,65.6517,-0.000772
38.032,65.6311,-0.000772
38.048,65.6094,-0.000772
38.069,65.5804,-0.000772
38.086,65.5571,-0.000772
38.101,65.5347,-0.000772
38.118,65.5117,-0.000772
38.133,65.4898,-0.000772
38.149,65.4670,-0.000772
38.166,65.4433,-0.000772
38.181,65.4201,-0.000772
38.198,65.3961,-0.000772
38.213,65.3728,-0.000621
38.230,65.3478,-0.000621
38.245,65.3245,-0.000621
38.261,65.2997,-0.000621
38.278,65.2749,-0.000621
38.294,65.2498,-0.000621
38.309,65.2260,-0.000621
38.325,65.2002,-0.000621
38.343,65.1725,-0.000621
38.369,65.1312,-0.000621
38.390,65.0974,-0.000621
38.406,65.0704,-0.000621
38.422,65.0441,-0.000621
38.446,65.0042,-0.000621
38.477,64.9528,-0.000621
38.508,64.8997,-0.000565
38.525,64.8692,-0.000565
38.554,64.8189,-0.000565
38.570,64.7912,-0.000565
38.594,64.7479,-0.000565
38.614,64.7118,-0.000565
38.630,64.6837,-0.000565
38.661,64.6266,-0.000565
38.676,64.5995,-0.000565
38.692,64.5702,-0.000565
38.708,64.5391,-0.000565
38.724,64.5107,-0.000565
38.740,64.4795,-0.000489
38.756,64.4495,-0.000489
38.786,64.3914,-0.000489
38.802,64.3618,-0.000489
38.817,64.3321,-0.000489
38.836,64.2954,-0.000489
38.862,64.2420,-0.000489
38.881,64.2045,-0.000489
38.898,64.1716,-0.000489
38.925,64.1168,-0.000489
38.945,64.0751,-0.000489
38.961,64.0422,-0.000489
38.978,64.0082,-0.000489
38.994,63.9745,-0.000358
39.017,63.9261,-0.000358
39.048,63.8617,-0.000358
39.077,63.7978,-0.000358
39.108,63.7338,-0.000358
39.123,63.6994,-0.000358
39.155,63.6346,-0.000358
39.185,63.5732,-0.000358
39.202,63.5375,-0.000358
39.232,63.4782,-0.000311
39.249,63.4432,-0.000311
39.265,63.4111,-0.000311
39.281,63.3802,-0.000311
39.297,63.3481,-0.000311
39.313,63.3173,-0.000311
39.331,63.2817,-0.000311
39.357,63.2309,-0.000311
39.377,63.1942,-0.000311
39.393,63.1634,-0.000311
39.409,63.1323,-0.000311
39.425,63.1037,-0.000311
39.441,63.0720,-0.000311
39.458,63.0431,-0.000311
39.473,63.0151,-0.000311
39.489,62.9857,-0.000442
39.505,62.9559,-0.000442
39.521,62.9269,-0.000442
39.537,62.8990,-0.000442
39.553,62.8708,-0.000442
39.569,62.8418,-0.000442
39.585,62.8137,-0.000442
39.601,62.7864,-0.000442
39.617,62.7583,-0.000442
39.633,62.7311,-0.000442
39.659,62.6869,-0.000442
39.675,62.6604,-0.000442
39.690,62.6348,-0.000442
39.706,62.6079,-0.000442
39.722,62.5819,-0.000442
39.738,62.5563,-0.000537
39.754,62.5300,-0.000537
39.771,62.5030,-0.000537
39.786,62.4782,-0.000537
39.802,62.4535,-0.000537
39.818,62.4282,-0.000537
39.834,62.4028,-0.000537
39.850,62.3771,-0.000537
39.866,62.3538,-0.000537
39.882,62.3279,-0.000537
39.898,62.3045,-0.000537
39.914,62.2812,-0.000537
39.930,62.2559,-0.000537
39.949,62.2278,-0.000537
39.974,62.1920,-0.000640
39.994,62.1635,-0.000640
40.010,62.1402,-0.000640
40.026,62.1183,-0.000640
40.042,62.0944,-0.000640
40.058,62.0729,-0.000640
40.074,62.0508,-0.000640
40.090,62.0283,-0.000640
40.106,62.0077,-0.000640
40.122,61.9862,-0.000640
40.138,61.9642,-0.000640
40.154,61.9436,-0.000640
40.170,61.9220,-0.000640
40.191,61.8948,-0.000640
40.207,61.8741,-0.000640
40.222,61.8545,-0.000706
40.239,61.8341,-0.000706
40.255,61.8138,-0.000706
40.271,61.7944,-0.000706
40.286,61.7756,-0.000706
40.303,61.7562,-0.000706
40.319,61.7363,-0.000706
40.335,61.7169,-0.000706
40.351,61.6979,-0.000706
40.367,61.6801,-0.000706
40.383,61.6612,-0.000706
40.405,61.6365,-0.000706
40.421,61.6183,-0.000706
40.436,61.6014,-0.000706
40.460,61.5764,-0.000706
40.478,61.5561,-0.000706
40.494,61.5392,-0.000687
40.511,61.5220,-0.000687
40.526,61.5056,-0.000687
40.543,61.4892,-0.000687
40.558,61.4723,-0.000687
40.574,61.4567,-0.000687
40.590,61.4411,-0.000687
40.607,61.4251,-0.000687
40.623,61.4087,-0.000687
40.638,61.3947,-0.000687
40.654,61.3796,-0.000687
40.670,61.3648,-0.000687
40.688,61.3486,-0.000687
40.716,61.3233,-0.000697
40.745,61.2980,-0.000697
40.761,61.2841,-0.000697
40.777,61.2706,-0.000697
40.793,61.2570,-0.000697
40.814,61.2392,-0.000697
40.839,61.2195,-0.000697
40.857,61.2054,-0.000697
40.873,61.1922,-0.000697
40.900,61.1720,-0.000697
40.921,61.1569,-0.000697
40.936,61.1454,-0.000697
40.953,61.1338,-0.000697
40.969,61.1226,-0.000650
40.985,61.1114,-0.000650
41.001,61.1004,-0.000650
41.017,61.0900,-0.000650
41.032,61.0797,-0.000650
41.048,61.0694,-0.000650
41.064,61.0592,-0.000650
41.080,61.0492,-0.000650
41.096,61.0396,-0.000650
41.112,61.0301,-0.000650
41.128,61.0208,-0.000650
41.145,61.0111,-0.000650
41.163,61.0009,-0.000650
41.179,60.9919,-0.000650
41.195,60.9837,-0.000650
41.211,60.9750,-0.000593
41.227,60.9674,-0.000593
41.258,60.9523,-0.000593
41.288,60.9380,-0.000593
41.304,60.9306,-0.000593
41.320,60.9237,-0.000593
41.337,60.9166,-0.000593
41.352,60.9101,-0.000593
41.368,60.9037,-0.000593
41.384,60.8975,-0.000593
41.400,60.8914,-0.000593
41.417,60.8855,-0.000593
41.432,60.8799,-0.000593
41.448,60.8745,-0.000593
41.465,60.8690,-0.000640
41.480,60.8641,-0.000640
41.496,60.8590,-0.000640
41.513,60.8545,-0.000640
41.529,60.8500,-0.000640
41.544,60.8457,-0.000640
41.560,60.8417,-0.000640
41.576,60.8377,-0.000640
41.592,60.8340,-0.000640
41.608,60.8304,-0.000640
41.624,60.8270,-0.000640
41.640,60.8239,-0.000640
41.656,60.8211,-0.000640
41.672,60.8182,-0.000640
41.688,60.8156,-0.000640
41.705,60.8133,-0.000640
41.720,60.8112,-0.000678
41.745,60.8081,-0.000678
41.769,60.8057,-0.000678
41.785,60.8044,-0.000678
41.800,60.8032,-0.000678
41.826,60.8016,-0.000678
41.843,60.8009,-0.000678
41.858,60.8004,-0.000678
41.874,60.8001,-0.000678
41.890,60.8000,-0.000678
41.906,60.8000,-0.000678
41.922,60.8000,-0.000678
41.939,60.8000,-0.000678
41.970,60.8000,-0.000640
41.988,60.8001,-0.000640
42.016,60.8008,-0.000640
42.034,60.8014,-0.000640
42.050,60.8022,-0.000640
42.066,60.8032,-0.000640
42.082,60.8045,-0.000640
42.098,60.8060,-0.000640
42.116,60.8077,-0.000640
42.140,60.8107,-0.000640
42.162,60.8135,-0.000640
42.178,60.8159,-0.000640
42.195,60.8186,-0.000640
42.218,60.8227,-0.000706
42.234,60.8257,-0.000706
42.250,60.8290,-0.000706
42.281,60.8357,-0.000706
42.312,60.8437,-0.000706
42.342,60.8515,-0.000706
42.374,60.8605,-0.000706
42.389,60.8656,-0.000706
42.405,60.8705,-0.000706
42.436,60.8811,-0.000706
42.467,60.8924,-0.000706
42.498,60.9042,-0.000715
42.514,60.9105,-0.000715
42.530,60.9172,-0.000715
42.546,60.9243,-0.000715
42.563,60.9315,-0.000715
42.578,60.9382,-0.000715
42.598,60.9480,-0.000715
42.613,60.9547,-0.000715
42.636,60.9664,-0.000715
42.667,60.9824,-0.000715
42.682,60.9904,-0.000715
42.698,60.9987,-0.000715
42.715,61.0081,-0.000715
42.744,61.0250,-0.000640
42.760,61.0340,-0.000640
42.776,61.0436,-0.000640
42.807,61.0628,-0.000640
42.822,61.0726,-0.000640
42.839,61.0834,-0.000640
42.869,61.1036,-0.000640
42.900,61.1257,-0.000640
42.916,61.1371,-0.000640
42.947,61.1586,-0.000640
42.962,61.1697,-0.000640
42.978,61.1818,-0.000640
42.994,61.1942,-0.000612
43.010,61.2067,-0.000612
43.026,61.2197,-0.000612
43.042,61.2320,-0.000612
43.058,61.2448,-0.000612
43.075,61.2593,-0.000612
43.095,61.2768,-0.000612
43.120,61.2975,-0.000612
43.138,61.3130,-0.000612
43.154,61.3272,-0.000612
43.169,61.3416,-0.000612
43.186,61.3565,-0.000612
43.202,61.3711,-0.000612
43.218,61.3864,-0.000612
43.233,61.4013,-0.000612
43.249,61.4162,-0.000631
43.266,61.4323,-0.000631
43.282,61.4484,-0.000631
43.297,61.4634,-0.000631
43.314,61.4798,-0.000631
43.330,61.4964,-0.000631
43.346,61.5131,-0.000631
43.361,61.5291,-0.000631
43.378,61.5461,-0.000631
43.393,61.5631,-0.000631
43.418,61.5893,-0.000631
43.433,61.6073,-0.000631
43.450,61.6254,-0.000631
43.465,61.6426,-0.000631
43.482,61.6614,-0.000697
43.498,61.6795,-0.000697
43.514,61.6981,-0.000697
43.530,61.7172,-0.000697
43.545,61.7354,-0.000697
43.562,61.7545,-0.000697
43.578,61.7738,-0.000697
43.593,61.7933,-0.000697
43.610,61.8135,-0.000697
43.626,61.8331,-0.000697
43.642,61.8533,-0.000697
43.658,61.8744,-0.000697
43.673,61.8945,-0.000697
43.689,61.9144,-0.000697
43.706,61.9376,-0.000697
43.734,61.9738,-0.000697
43.753,61.9988,-0.000697
43.769,62.0210,-0.000697
43.786,62.0432,-0.000697
43.801,62.0648,-0.000697
43.817,62.0868,-0.000697
43.834,62.1108,-0.000697
43.850,62.1321,-0.000697
43.865,62.1547,-0.000697
43.881,62.1778,-0.000697
43.898,62.2018,-0.000697
43.913,62.2244,-0.000697
43.929,62.2480,-0.000697
43.952,62.2812,-0.000697
43.967,62.3047,-0.000697
43.983,62.3290,-0.000697
43.999,62.3534,-0.000697
44.020,62.3858,-0.000697
44.035,62.4088,-0.000697
44.059,62.4463,-0.000697
44.080,62.4789,-0.000697
44.095,62.5042,-0.000697
44.111,62.5295,-0.000697
44.128,62.5574,-0.000697
44.146,62.5889,-0.000697
44.162,62.6129,-0.000697
44.183,62.6472,-0.000697
44.198,62.6740,-0.000697
44.215,62.7015,-0.000697
44.246,62.7535,-0.000715
44.276,62.8081,-0.000715
44.306,62.8594,-0.000715
44.337,62.9136,-0.000715
44.367,62.9689,-0.000715
44.385,63.0019,-0.000715
44.414,63.0551,-0.000715
44.431,63.0861,-0.000715
44.447,63.1158,-0.000715
44.463,63.1462,-0.000715
44.480,63.1780,-0.000715
44.506,63.2288,-0.000734
44.538,63.2900,-0.000734
44.553,63.3193,-0.000734
44.570,63.3520,-0.000734
44.585,63.3824,-0.000734
44.601,63.4131,-0.000734
44.617,63.4451,-0.000734
44.634,63.4804,-0.000734
44.660,63.5324,-0.000734
44.681,63.5747,-0.000734
44.697,63.6075,-0.000734
44.713,63.6416,-0.000734
44.729,63.6735,-0.000650
44.746,63.7098,-0.000650
44.768,63.7567,-0.000650
44.783,63.7900,-0.000650
44.799,63.8221,-0.000650
44.829,63.8867,-0.000650
44.859,63.9483,-0.000650
44.891,64.0132,-0.000650
44.921,64.0761,-0.000650
44.937,64.1080,-0.000650
44.953,64.1413,-0.000650
44.969,64.1717,-0.000386
44.985,64.2040,-0.000386
45.002,64.2372,-0.000386
45.029,64.2900,-0.000386
45.049,64.3292,-0.000386
45.065,64.3597,-0.000386
45.081,64.3914,-0.000386
45.097,64.4215,-0.000386
45.113,64.4519,-0.000386
45.129,64.4818,-0.000386
45.145,64.5107,-0.000386
45.161,64.5412,-0.000386
45.178,64.5721,-0.000386
45.198,64.6086,-0.000386
45.229,64.6645,-0.000282
45.260,64.7210,-0.000282
45.275,64.7472,-0.000282
45.291,64.7745,-0.000282
45.307,64.8027,-0.000282
45.337,64.8552,-0.000282
45.353,64.8821,-0.000282
45.369,64.9090,-0.000282
45.385,64.9357,-0.000282
45.402,64.9642,-0.000282
45.417,64.9898,-0.000282
45.433,65.0158,-0.000282
45.449,65.0415,-0.000282
45.465,65.0685,-0.000282
45.481,65.0937,-0.000282
45.497,65.1195,-0.000414
45.513,65.1449,-0.000414
45.531,65.1737,-0.000414
45.553,65.2094,-0.000414
45.569,65.2324,-0.000414
45.601,65.2807,-0.000414
45.631,65.3269,-0.000414
45.662,65.3719,-0.000414
45.678,65.3963,-0.000414
45.708,65.4400,-0.000414
45.739,65.4839,-0.000414
45.770,65.5268,-0.000518
45.786,65.5481,-0.000518
45.817,65.5919,-0.000518
45.834,65.6134,-0.000518
45.863,65.6524,-0.000518
45.881,65.6756,-0.000518
45.897,65.6979,-0.000518
45.913,65.7175,-0.000518
45.928,65.7374,-0.000518
45.944,65.7574,-0.000518
45.961,65.7783,-0.000518
45.977,65.7980,-0.000518
45.993,65.8180,-0.000631
46.008,65.8362,-0.000631
46.028,65.8608,-0.000631
46.049,65.8856,-0.000631
46.080,65.9203,-0.000631
46.110,65.9548,-0.000631
46.141,65.9903,-0.000631
46.171,66.0225,-0.000631
46.187,66.0398,-0.000631
46.203,66.0579,-0.000631
46.233,66.0891,-0.000781
46.249,66.1042,-0.000781
46.266,66.1216,-0.000781
46.281,66.1375,-0.000781
46.310,66.1666,-0.000781
46.328,66.1841,-0.000781
46.344,66.1994,-0.000781
46.361,66.2149,-0.000781
46.377,66.2306,-0.000781
46.398,66.2495,-0.000781
46.419,66.2682,-0.000781
46.434,66.2818,-0.000781
46.450,66.2967,-0.000781
46.473,66.3152,-0.000781
46.488,66.3286,-0.000866
46.505,66.3424,-0.000866
46.521,66.3558,-0.000866
46.536,66.3682,-0.000866
46.552,66.3813,-0.000866
46.568,66.3938,-0.000866
46.584,66.4064,-0.000866
46.600,66.4185,-0.000866
46.617,66.4309,-0.000866
46.632,66.4426,-0.000866
46.657,66.4602,-0.000866
46.672,66.4714,-0.000866
46.688,66.4826,-0.000866
46.705,66.4939,-0.000866
46.721,66.5046,-0.000922
46.736,66.5148,-0.000922
46.752,66.5252,-0.000922
46.769,66.5360,-0.000922
46.784,66.5455,-0.000922
46.801,66.5557,-0.000922
46.817,66.5652,-0.000922
46.832,66.5747,-0.000922
46.849,66.5840,-0.000922
46.864,66.5930,-0.000922
46.881,66.6024,-0.000922
46.897,66.6104,-0.000922
46.912,66.6188,-0.000922
46.928,66.6270,-0.000922
46.945,66.6354,-0.000922
46.960,66.6431,-0.000922
46.977,66.6512,-0.000970
46.992,66.6581,-0.000970
47.009,66.6658,-0.000970
47.025,66.6729,-0.000970
47.040,66.6795,-0.000970
47.056,66.6863,-0.000970
47.073,66.6931,-0.000970
47.088,66.6993,-0.000970
47.104,66.7054,-0.000970
47.120,66.7113,-0.000970
47.137,66.7173,-0.000970
47.152,66.7227,-0.000970
47.168,66.7280,-0.000970
47.184,66.7332,-0.000970
47.200,66.7381,-0.000970
47.216,66.7430,-0.001083
47.232,66.7477,-0.001083
47.248,66.7521,-0.001083
47.265,66.7564,-0.001083
47.280,66.7602,-0.001083
47.297,66.7643,-0.001083
47.316,66.7685,-0.001083
47.342,66.7742,-0.001083
47.360,66.7774,-0.001083
47.376,66.7803,-0.001083
47.392,66.7830,-0.001083
47.409,66.7855,-0.001083
47.424,66.7877,-0.001083
47.441,66.7898,-0.001083
47.457,66.7918,-0.001083
47.472,66.7934,-0.001148
47.488,66.7949,-0.001148
47.504,66.7963,-0.001148
47.520,66.7973,-0.001148
47.536,66.7983,-0.001148
47.553,66.7990,-0.001148
47.568,66.7995,-0.001148
47.584,66.7999,-0.001148
47.600,66.8000,-0.001148
47.616,66.8000,-0.001148
47.632,66.8000,-0.001148
47.648,66.8000,-0.001148
47.664,66.8000,-0.001148
47.681,66.8000,-0.001148
47.710,66.8000,-0.001148
47.740,66.8000,-0.001167
47.757,66.8000,-0.001167
47.773,66.8000,-0.001167
47.788,66.8000,-0.001167
47.805,66.8000,-0.001167
47.833,66.8000,-0.001167
47.852,66.8000,-0.001167
47.868,66.8000,-0.001167
47.884,66.8000,-0.001167
47.900,66.8000,-0.001167
47.916,66.8000,-0.001167
47.935,66.8000,-0.001167
47.958,66.8000,-0.001167
47.973,66.8000,-0.001167
48.004,66.8000,-0.001233
48.019,66.8000,-0.001233
48.034,66.8000,-0.001233
48.066,66.8000,-0.001233
48.097,66.8000,-0.001233
48.114,66.8000,-0.001233
48.130,66.8000,-0.001233
48.160,66.8000,-0.001233
48.192,66.8000,-0.001233
48.222,66.8000,-0.001224
48.254,66.8000,-0.001224
48.269,66.8000,-0.001224
48.298,66.8000,-0.001224
48.314,66.8000,-0.001224
48.330,66.8000,-0.001224
48.346,66.8000,-0.001224
48.364,66.8000,-0.001224
48.392,66.8000,-0.001224
48.410,66.8000,-0.001224
48.426,66.8000,-0.001224
48.442,66.8000,-0.001224
48.459,66.8000,-0.001177
48.474,66.8000,-0.001177
48.490,66.8000,-0.001177
48.506,66.8000,-0.001177
48.522,66.8000,-0.001177
48.538,66.8000,-0.001177
48.555,66.8000,-0.001177
48.570,66.8000,-0.001177
48.586,66.8000,-0.001177
48.602,66.8000,-0.001177
48.618,66.8000,-0.001177
48.634,66.8000,-0.001177
48.650,66.8000,-0.001177
48.666,66.8000,-0.001177
48.681,66.8000,-0.001177
48.697,66.8000,-0.001177
48.713,66.8000,-0.001177
48.730,66.8000,-0.001177
48.746,66.8000,-0.001177
48.762,66.8000,-0.001177
48.778,66.8000,-0.001177
48.794,66.8000,-0.001177
48.823,66.8000,-0.001177
48.842,66.8000,-0.001177
48.857,66.8000,-0.001177
48.874,66.8000,-0.001177
48.889,66.8000,-0.001177
48.906,66.8000,-0.001177
48.922,66.8000,-0.001177
48.938,66.8000,-0.001177
48.954,66.8000,-0.001177
48.969,66.8000,-0.001177
48.985,66.8000,-0.001177
49.001,66.8000,-0.001177
49.018,66.8000,-0.001177
49.033,66.8000,-0.001177
49.050,66.8000,-0.001177
49.066,66.8000,-0.001177
49.082,66.8000,-0.001177
49.098,66.8000,-0.001177
49.113,66.8000,-0.001177
49.130,66.8000,-0.001177
49.146,66.8000,-0.001177
49.161,66.8000,-0.001177
49.178,66.8000,-0.001177
49.193,66.8000,-0.001177
49.213,66.8000,-0.001177
49.240,66.8000,-0.001158
49.257,66.8000,-0.001158
49.274,66.8000,-0.001158
49.290,66.8000,-0.001158
49.305,66.8000,-0.001158
49.321,66.8000,-0.001158
49.342,66.8000,-0.001158
49.367,66.8000,-0.001158
49.396,66.8000,-0.001158
49.414,66.8000,-0.001158
49.429,66.8000,-0.001158
49.445,66.8000,-0.001158
49.463,66.8000,-0.001186
49.486,66.8000,-0.001186
49.501,66.8000,-0.001186
49.518,66.8000,-0.001186
49.548,66.8000,-0.001186
49.580,66.8000,-0.001186
49.610,66.8000,-0.001186
49.626,66.8000,-0.001186
49.641,66.8000,-0.001186
49.673,66.8000,-0.001186
49.689,66.8000,-0.001186
49.719,66.8000,-0.001186
49.750,66.8000,-0.001195
49.766,66.8000,-0.001195
49.782,66.8000,-0.001195
49.797,66.8000,-0.001195
49.813,66.8000,-0.001195
49.829,66.8000,-0.001195
49.845,66.8000,-0.001195
49.861,66.8000,-0.001195
49.877,66.8000,-0.001195
49.901,66.8000,-0.001195
49.917,66.8000,-0.001195
49.933,66.8000,-0.001195
49.949,66.8000,-0.001195
49.965,66.8000,-0.001195
49.982,66.8000,-0.001195
49.997,66.8000,-0.001148
50.014,66.8000,-0.001148
50.034,66.8000,-0.001148
50.049,66.8000,-0.001148
50.073,66.8000,-0.001148
50.094,66.8000,-0.001148
50.110,66.8000,-0.001148
50.125,66.8000,-0.001148
50.142,66.8000,-0.001148
50.157,66.8000,-0.001148
50.173,66.8000,-0.001148
50.189,66.8000,-0.001148
50.205,66.8000,-0.001148
50.221,66.8000,-0.001148
50.237,66.8000,-0.001167
50.253,66.8000,-0.001167
50.269,66.8000,-0.001167
50.286,66.8000,-0.001167
50.301,66.8000,-0.001167
50.317,66.8000,-0.001167
50.333,66.8000,-0.001167
50.350,66.8000,-0.001167
50.366,66.8000,-0.001167
50.382,66.8000,-0.001167
50.397,66.8000,-0.001167
50.414,66.8000,-0.001167
50.429,66.8000,-0.001167
50.459,66.8000,-0.001167
50.475,66.8000,-0.001167
50.491,66.8000,-0.001186
50.507,66.8000,-0.001186
50.530,66.8000,-0.001186
50.554,66.8000,-0.001186
50.571,66.8000,-0.001186
50.587,66.8000,-0.001186
50.603,66.8000,-0.001186
50.619,66.8000,-0.001186
50.635,66.8000,-0.001186
50.653,66.8000,-0.001186
50.677,66.8000,-0.001186
50.708,66.8000,-0.001186
50.738,66.8000,-0.001186
50.770,66.8000,-0.001158
50.800,66.8000,-0.001158
50.831,66.8000,-0.001158
50.846,66.8000,-0.001158
50.862,66.8000,-0.001158
50.893,66.8000,-0.001158
50.908,66.8000,-0.001158
50.940,66.8000,-0.001158
50.956,66.8000,-0.001158
50.972,66.8000,-0.001158
51.001,66.8000,-0.001158
51.024,66.8000,-0.001158
51.048,66.8000,-0.001158
51.067,66.8000,-0.001158
51.083,66.8000,-0.001158
51.099,66.8000,-0.001158
51.115,66.8000,-0.001158
51.131,66.8000,-0.001158
51.148,66.8000,-0.001158
51.163,66.8000,-0.001158
51.179,66.8000,-0.001158
51.195,66.8000,-0.001158
51.212,66.8000,-0.001158
51.227,66.8000,-0.001158
51.242,66.8000,-0.001167
51.259,66.8000,-0.001167
51.276,66.8000,-0.001167
51.294,66.8000,-0.001167
51.310,66.8000,-0.001167
51.341,66.8000,-0.001167
51.357,66.8000,-0.001167
51.375,66.8000,-0.001167
51.403,66.8000,-0.001167
51.419,66.8000,-0.001167
51.436,66.8000,-0.001167
51.466,66.8000,-0.001167
51.483,66.8000,-0.001167
51.499,66.8000,-0.001167
51.514,66.8000,-0.001167
51.531,66.8000,-0.001167
51.562,66.8000,-0.001167
51.578,66.8000,-0.001167
51.593,66.8000,-0.001167
51.609,66.8000,-0.001167
51.627,66.8000,-0.001167
51.651,66.8000,-0.001167
51.666,66.8000,-0.001167
51.697,66.8000,-0.001167
51.728,66.8000,-0.001195
51.758,66.8000,-0.001195
51.774,66.8000,-0.001195
51.804,66.8000,-0.001195
51.826,66.8000,-0.001195
51.851,66.8000,-0.001195
51.866,66.8000,-0.001195
51.882,66.8000,-0.001195
51.897,66.8000,-0.001195
51.914,66.8000,-0.001195
51.929,66.8000,-0.001195
51.945,66.8000,-0.001195
51.962,66.8000,-0.001243
51.978,66.8000,-0.001243
51.994,66.8000,-0.001243
52.021,66.8000,-0.001243
52.042,66.8000,-0.001243
52.058,66.8000,-0.001243
52.074,66.8000,-0.001243
52.089,66.8000,-0.001243
52.113,66.8000,-0.001243
52.129,66.8000,-0.001243
52.144,66.8000,-0.001243
52.160,66.8000,-0.001243
52.176,66.8000,-0.001243
52.193,66.8000,-0.001243
52.208,66.8000,-0.001299
52.225,66.8000,-0.001299
52.247,66.8000,-0.001299
52.269,66.8000,-0.001299
52.288,66.8000,-0.001299
52.306,66.8000,-0.001299
52.322,66.7999,-0.001299
52.345,66.7993,-0.001299
52.375,66.7979,-0.001299
52.407,66.7958,-0.001299
52.422,66.7944,-0.001299
52.438,66.7929,-0.001299
52.469,66.7895,-0.001271
52.500,66.7851,-0.001271
52.515,66.7827,-0.001271
52.531,66.7802,-0.001271
52.561,66.7743,-0.001271
52.592,66.7679,-0.001271
52.612,66.7636,-0.001271
52.639,66.7567,-0.001271
52.670,66.7483,-0.001271
52.687,66.7438,-0.001271
52.702,66.7392,-0.001271
52.718,66.7342,-0.000311
52.734,66.7291,-0.000311
52.751,66.7236,-0.000311
52.766,66.7180,-0.000311
52.783,66.7121,-0.000311
52.802,66.7049,-0.000311
52.818,66.6986,-0.000311
52.841,66.6896,-0.000311
52.862,66.6808,-0.000311
52.878,66.6739,-0.000311
52.894,66.6671,-0.000311
52.910,66.6596,-0.000311
52.927,66.6521,-0.000311
52.942,66.6446,-0.000311
52.958,66.6368,0.002626
52.976,66.6279,0.002626
52.996,66.6172,0.002626
53.027,66.6003,0.002626
53.042,66.5923,0.002626
53.058,66.5836,0.002626
53.089,66.5654,0.002626
53.120,66.5461,0.002626
53.136,66.5365,0.002626
53.151,66.5265,0.002626
53.167,66.5166,0.002626
53.182,66.5065,0.002626
53.211,66.4864,0.002626
53.227,66.4757,0.002626
53.243,66.4643,0.007719
53.259,66.4529,0.007719
53.283,66.4344,0.007719
53.307,66.4177,0.007719
53.323,66.4051,0.007719
53.340,66.3921,0.007719
53.355,66.3799,0.007719
53.371,66.3668,0.007719
53.388,66.3528,0.007719
53.414,66.3307,0.007719
53.435,66.3132,0.007719
53.451,66.2998,0.007719
53.468,66.2849,0.007719
53.492,66.2629,0.007719
53.522,66.2356,0.004876
53.538,66.2213,0.004876
53.568,66.1924,0.004876
53.599,66.1622,0.004876
53.615,66.1464,0.004876
53.631,66.1314,0.004876
53.646,66.1157,0.004876
53.661,66.0995,0.004876
53.692,66.0678,0.004876
53.709,66.0491,0.004876
53.739,66.0178,0.004876
53.767,65.9867,-0.000922
53.783,65.9687,-0.000922
53.799,65.9510,-0.000922
53.815,65.9326,-0.000922
53.832,65.9139,-0.000922
53.847,65.8953,-0.000922
53.863,65.8773,-0.000922
53.879,65.8579,-0.000922
53.895,65.8386,-0.000922
53.912,65.8186,-0.000922
53.928,65.7988,-0.000922
53.943,65.7793,-0.000922
53.959,65.7597,-0.000922
53.975,65.7401,-0.000828
53.991,65.7198,-0.000828
54.008,65.6973,-0.000828
54.033,65.6647,-0.000828
54.064,65.6245,-0.000828
54.094,65.5835,-0.000828
54.124,65.5430,-0.000828
54.154,65.5007,-0.000828
54.185,65.4572,-0.000828
54.200,65.4340,-0.000828
54.216,65.4122,-0.000715
54.232,65.3885,-0.000715
54.250,65.3623,-0.000715
54.279,65.3189,-0.000715
54.309,65.2737,-0.000715
54.324,65.2508,-0.000715
54.340,65.2259,-0.000715
54.357,65.2007,-0.000715
54.374,65.1739,-0.000715
54.403,65.1279,-0.000715
54.421,65.0987,-0.000715
54.436,65.0745,-0.000715
54.452,65.0483,-0.000715
54.468,65.0226,-0.000555
54.485,64.9940,-0.000555
54.504,64.9624,-0.000555
54.526,64.9260,-0.000555
54.557,64.8739,-0.000555
54.588,64.8192,-0.000555
54.604,64.7933,-0.000555
54.635,64.7385,-0.000555
54.666,64.6834,-0.000555
54.681,64.6552,-0.000555
54.702,64.6177,-0.000555
54.729,64.5697,-0.000471
54.745,64.5404,-0.000471
54.775,64.4821,-0.000471
54.791,64.4542,-0.000471
54.807,64.4216,-0.000471
54.837,64.3662,-0.000471
54.866,64.3105,-0.000471
54.882,64.2790,-0.000471
54.898,64.2486,-0.000471
54.913,64.2172,-0.000471
54.929,64.1847,-0.000471
54.946,64.1530,-0.000471
54.961,64.1219,-0.000348
54.977,64.0897,-0.000348
55.003,64.0354,-0.000348
55.027,63.9884,-0.000348
55.042,63.9575,-0.000348
55.058,63.9244,-0.000348
55.073,63.8920,-0.000348
55.089,63.8582,-0.000348
55.105,63.8243,-0.000348
55.121,63.7893,-0.000348
55.138,63.7550,-0.000348
55.153,63.7224,-0.000348
55.169,63.6878,-0.000348
55.185,63.6530,-0.000348
55.201,63.6204,-0.000348
55.217,63.5881,-0.000282
55.233,63.5543,-0.000282
55.249,63.5218,-0.000282
55.265,63.4892,-0.000282
55.281,63.4571,-0.000282
55.298,63.4222,-0.000282
55.314,63.3909,-0.000282
55.329,63.3594,-0.000282
55.346,63.3281,-0.000282
55.362,63.2949,-0.000282
55.392,63.2378,-0.000282
55.421,63.1820,-0.000282
55.437,63.1505,-0.000282
55.454,63.1188,-0.000282
55.469,63.0899,-0.000442
55.487,63.0555,-0.000442
55.516,63.0034,-0.000442
55.532,62.9727,-0.000442
55.549,62.9428,-0.000442
55.565,62.9136,-0.000442
55.580,62.8856,-0.000442
55.596,62.8569,-0.000442
55.613,62.8274,-0.000442
55.628,62.8000,-0.000442
55.645,62.7707,-0.000442
55.670,62.7272,-0.000442
55.686,62.6999,-0.000442
55.702,62.6725,-0.000442
55.732,62.6207,-0.000574
55.763,62.5686,-0.000574
55.793,62.5191,-0.000574
55.810,62.4923,-0.000574
55.839,62.4454,-0.000574
55.869,62.3969,-0.000574
55.885,62.3721,-0.000574
55.900,62.3479,-0.000574
55.916,62.3236,-0.000574
55.932,62.2991,-0.000574
55.948,62.2754,-0.000574
55.977,62.2304,-0.000687
56.008,62.1842,-0.000687
56.024,62.1620,-0.000687
56.040,62.1372,-0.000687
56.056,62.1152,-0.000687
56.072,62.0928,-0.000687
56.088,62.0696,-0.000687
56.104,62.0461,-0.000687
56.120,62.0255,-0.000687
56.136,62.0027,-0.000687
56.152,61.9812,-0.000687
56.169,61.9573,-0.000687
56.185,61.9358,-0.000687
56.200,61.9163,-0.000687
56.217,61.8935,-0.000753
56.232,61.8741,-0.000753
56.248,61.8533,-0.000753
56.264,61.8329,-0.000753
56.281,61.8115,-0.000753
56.303,61.7836,-0.000753
56.334,61.7442,-0.000753
56.366,61.7058,-0.000753
56.396,61.6704,-0.000753
56.413,61.6507,-0.000753
56.442,61.6158,-0.000753
56.473,61.5815,-0.000753
56.503,61.5477,-0.000706
56.521,61.5274,-0.000706
56.551,61.4966,-0.000706
56.568,61.4784,-0.000706
56.584,61.4617,-0.000706
56.600,61.4453,-0.000706
56.616,61.4293,-0.000706
56.632,61.4133,-0.000706
56.648,61.3968,-0.000706
56.665,61.3808,-0.000706
56.680,61.3656,-0.000706
56.696,61.3504,-0.000706
56.712,61.3346,-0.000706
56.728,61.3203,-0.000706
56.744,61.3059,-0.000621
56.760,61.2913,-0.000621
56.776,61.2764,-0.000621
56.792,61.2627,-0.000621
56.808,61.2484,-0.000621
56.824,61.2347,-0.000621
56.850,61.2126,-0.000621
56.875,61.1916,-0.000621
56.906,61.1665,-0.000621
56.922,61.1537,-0.000621
56.938,61.1419,-0.000621
56.955,61.1289,-0.000621
56.984,61.1071,-0.000612
57.000,61.0953,-0.000612
57.016,61.0832,-0.000612
57.040,61.0672,-0.000612
57.056,61.0561,-0.000612
57.072,61.0453,-0.000612
57.088,61.0352,-0.000612
57.104,61.0241,-0.000612
57.120,61.0142,-0.000612
57.136,61.0045,-0.000612
57.152,60.9946,-0.000612
57.168,60.9848,-0.000612
57.184,60.9750,-0.000612
57.199,60.9663,-0.000612
57.219,60.9549,-0.000612
57.248,60.9394,-0.000687
57.264,60.9311,-0.000687
57.281,60.9224,-0.000687
57.309,60.9078,-0.000687
57.328,60.8994,-0.000687
57.344,60.8917,-0.000687
57.359,60.8845,-0.000687
57.375,60.8774,-0.000687
57.391,60.8705,-0.000687
57.407,60.8638,-0.000687
57.424,60.8571,-0.000687
57.439,60.8509,-0.000687
57.456,60.8447,-0.000687
57.473,60.8382,-0.000687
57.488,60.8326,-0.000687
57.504,60.8273,-0.000659
57.519,60.8220,-0.000659
57.535,60.8168,-0.000659
57.551,60.8118,-0.000659
57.567,60.8068,-0.000659
57.590,60.8006,-0.000659
57.606,60.7962,-0.000659
57.634,60.7893,-0.000659
57.653,60.7846,-0.000659
57.669,60.7810,-0.000659
57.685,60.7777,-0.000659
57.701,60.7745,-0.000659
57.717,60.7715,-0.000659
57.733,60.7688,-0.000659
57.749,60.7662,-0.000631
57.765,60.7637,-0.000631
57.781,60.7616,-0.000631
57.798,60.7595,-0.000631
57.814,60.7576,-0.000631
57.829,60.7560,-0.000631
57.845,60.7546,-0.000631
57.861,60.7534,-0.000631
57.877,60.7524,-0.000631
57.894,60.7514,-0.000631
57.913,60.7506,-0.000631
57.941,60.7502,-0.000631
57.957,60.7500,-0.000631
57.974,60.7500,-0.000631
57.989,60.7500,-0.000697
58.005,60.7500,-0.000697
58.025,60.7500,-0.000697
58.050,60.7500,-0.000697
58.069,60.7500,-0.000697
58.086,60.7500,-0.000697
58.102,60.7500,-0.000697
58.118,60.7500,-0.000697
58.143,60.7502,-0.000697
58.161,60.7505,-0.000697
58.189,60.7516,-0.000697
58.207,60.7526,-0.000697
58.222,60.7536,-0.000697
58.238,60.7549,-0.000602
58.254,60.7564,-0.000602
58.272,60.7582,-0.000602
58.298,60.7616,-0.000602
58.318,60.7643,-0.000602
58.335,60.7668,-0.000602
58.350,60.7694,-0.000602
58.367,60.7722,-0.000602
58.382,60.7751,-0.000602
58.398,60.7786,-0.000602
58.414,60.7819,-0.000602
58.430,60.7854,-0.000602
58.446,60.7892,-0.000602
58.462,60.7932,-0.000602
58.479,60.7975,-0.000621
58.494,60.8017,-0.000621
58.510,60.8065,-0.000621
58.526,60.8112,-0.000621
58.542,60.8161,-0.000621
58.558,60.8212,-0.000621
58.574,60.8266,-0.000621
58.591,60.8323,-0.000621
58.606,60.8378,-0.000621
58.622,60.8438,-0.000621
58.645,60.8526,-0.000621
58.668,60.8619,-0.000621
58.685,60.8687,-0.000621
58.700,60.8755,-0.000621
58.716,60.8825,-0.000621
58.732,60.8898,-0.000687
58.748,60.8974,-0.000687
58.764,60.9049,-0.000687
58.780,60.9130,-0.000687
58.796,60.9213,-0.000687
58.813,60.9295,-0.000687
58.831,60.9392,-0.000687
58.847,60.9476,-0.000687
58.870,60.9605,-0.000687
58.885,60.9692,-0.000687
58.917,60.9879,-0.000687
58.948,61.0066,-0.000687
58.978,61.0262,-0.000612
59.009,61.0463,-0.000612
59.025,61.0569,-0.000612
59.040,61.0678,-0.000612
59.056,61.0784,-0.000612
59.087,61.1008,-0.000612
59.118,61.1233,-0.000612
59.134,61.1365,-0.000612
59.165,61.1600,-0.000612
59.196,61.1851,-0.000612
59.212,61.1978,-0.000612
59.228,61.2108,-0.000640
59.244,61.2247,-0.000640
59.261,61.2394,-0.000640
59.277,61.2526,-0.000640
59.304,61.2768,-0.000640
59.324,61.2949,-0.000640
59.340,61.3094,-0.000640
59.356,61.3245,-0.000640
59.372,61.3389,-0.000640
59.388,61.3544,-0.000640
59.404,61.3699,-0.000640
59.420,61.3850,-0.000640
59.436,61.4013,-0.000640
59.452,61.4174,-0.000640
59.468,61.4336,-0.000640
59.484,61.4493,-0.000659
59.500,61.4663,-0.000659
59.517,61.4836,-0.000659
59.532,61.4999,-0.000659
59.548,61.5172,-0.000659
59.564,61.5341,-0.000659
59.580,61.5520,-0.000659
59.597,61.5704,-0.000659
59.614,61.5892,-0.000659
59.629,61.6069,-0.000659
59.650,61.6325,-0.000659
59.675,61.6594,-0.000659
59.692,61.6809,-0.000659
59.708,61.6987,-0.000659
59.724,61.7188,-0.000659
59.750,61.7511,-0.000678
59.776,61.7833,-0.000678
59.798,61.8102,-0.000678
59.814,61.8310,-0.000678
59.830,61.8505,-0.000678
59.846,61.8719,-0.000678
59.862,61.8922,-0.000678
59.880,61.9166,-0.000678
59.905,61.9497,-0.000678
59.926,61.9779,-0.000678
59.942,62.0003,-0.000678
59.958,62.0230,-0.000678
59.974,62.0441,-0.000715
59.990,62.0667,-0.000715
60.006,62.0907,-0.000715
60.021,62.1125,-0.000715
60.038,62.1355,-0.000715
60.054,62.1589,-0.000715
60.071,62.1836,-0.000715
60.090,62.2128,-0.000715
60.121,62.2585,-0.000715
60.151,62.3057,-0.000715
60.167,62.3291,-0.000715
60.198,62.3772,-0.000715
60.214,62.4028,-0.000715
60.230,62.4276,-0.000715
60.247,62.4555,-0.000715
60.276,62.5015,-0.000715
60.304,62.5479,-0.000715
60.319,62.5747,-0.000715
60.335,62.6007,-0.000715
60.352,62.6281,-0.000715
60.368,62.6548,-0.000715
60.384,62.6829,-0.000715
60.399,62.7092,-0.000715
60.415,62.7373,-0.000715
60.431,62.7647,-0.000715
60.448,62.7934,-0.000715
60.463,62.8208,-0.000828
60.480,62.8497,-0.000828
60.495,62.8783,-0.000828
60.511,62.9070,-0.000828
60.528,62.9366,-0.000828
60.543,62.9643,-0.000828
60.561,62.9967,-0.000828
60.586,63.0440,-0.000828
60.608,63.0844,-0.000828
60.624,63.1149,-0.000828
60.640,63.1455,-0.000828
60.655,63.1742,-0.000828
60.671,63.2051,-0.000828
60.688,63.2379,-0.000828
60.704,63.2677,-0.000828
60.719,63.2991,-0.000857
60.735,63.3300,-0.000857
60.751,63.3627,-0.000857
60.767,63.3935,-0.000857
60.784,63.4266,-0.000857
60.800,63.4594,-0.000857
60.815,63.4903,-0.000857
60.832,63.5238,-0.000857
60.862,63.5858,-0.000857
60.877,63.6196,-0.000857
60.893,63.6519,-0.000857
60.909,63.6855,-0.000857
60.926,63.7194,-0.000857
60.941,63.7542,-0.000857
60.957,63.7882,-0.000640
60.973,63.8206,-0.000640
60.990,63.8558,-0.000640
61.006,63.8888,-0.000640
61.021,63.9209,-0.000640
61.037,63.9542,-0.000640
61.054,63.9874,-0.000640
61.069,64.0193,-0.000640
61.085,64.0520,-0.000640
61.101,64.0842,-0.000640
61.120,64.1214,-0.000640
61.143,64.1676,-0.000640
61.174,64.2309,-0.000640
61.190,64.2603,-0.000640
61.221,64.3186,-0.000433
61.237,64.3515,-0.000433
61.254,64.3816,-0.000433
61.284,64.4381,-0.000433
61.315,64.4958,-0.000433
61.346,64.5527,-0.000433
61.378,64.6105,-0.000433
61.407,64.6635,-0.000433
61.438,64.7195,-0.000433
61.454,64.7454,-0.000433
61.469,64.7719,-0.000377
61.493,64.8138,-0.000377
61.516,64.8524,-0.000377
61.534,64.8819,-0.000377
61.550,64.9095,-0.000377
61.565,64.9356,-0.000377
61.583,64.9635,-0.000377
61.608,65.0059,-0.000377
61.629,65.0401,-0.000377
61.645,65.0659,-0.000377
61.661,65.0904,-0.000377
61.678,65.1176,-0.000377
61.694,65.1416,-0.000377
61.709,65.1650,-0.000499
61.725,65.1902,-0.000499
61.742,65.2156,-0.000499
61.757,65.2388,-0.000499
61.773,65.2630,-0.000499
61.789,65.2872,-0.000499
61.805,65.3116,-0.000499
61.821,65.3344,-0.000499
61.837,65.3579,-0.000499
61.853,65.3803,-0.000499
61.869,65.4039,-0.000499
61.885,65.4267,-0.000499
61.914,65.4680,-0.000499
61.930,65.4902,-0.000499
61.946,65.5109,-0.000499
61.962,65.5332,-0.000631
61.979,65.5564,-0.000631
61.995,65.5774,-0.000631
62.024,65.6153,-0.000631
62.042,65.6392,-0.000631
62.058,65.6602,-0.000631
62.074,65.6803,-0.000631
62.090,65.7015,-0.000631
62.106,65.7206,-0.000631
62.122,65.7415,-0.000631
62.139,65.7616,-0.000631
62.154,65.7802,-0.000631
62.170,65.7988,-0.000631
62.186,65.8186,-0.000631
62.202,65.8372,-0.000631
62.218,65.8562,-0.000631
62.234,65.8748,-0.000631
62.250,65.8920,-0.000725
62.266,65.9109,-0.000725
62.282,65.9290,-0.000725
62.298,65.9467,-0.000725
62.314,65.9635,-0.000725
62.331,65.9825,-0.000725
62.347,65.9996,-0.000725
62.367,66.0203,-0.000725
62.398,66.0536,-0.000725
62.428,66.0838,-0.000725
62.460,66.1162,-0.000725
62.491,66.1448,-0.000838
62.506,66.1594,-0.000838
62.522,66.1753,-0.000838
62.538,66.1890,-0.000838
62.554,66.2036,-0.000838
62.570,66.2181,-0.000838
62.586,66.2325,-0.000838
62.602,66.2467,-0.000838
62.618,66.2604,-0.000838
62.634,66.2739,-0.000838
62.650,66.2876,-0.000838
62.666,66.3013,-0.000838
62.682,66.3137,-0.000838
62.698,66.3270,-0.000838
62.714,66.3401,-0.000838
62.730,66.3522,-0.000904
62.746,66.3642,-0.000904
62.762,66.3767,-0.000904
62.778,66.3888,-0.000904
62.793,66.3999,-0.000904
62.810,66.4118,-0.000904
62.826,66.4231,-0.000904
62.842,66.4343,-0.000904
62.857,66.4449,-0.000904
62.874,66.4560,-0.000904
62.890,66.4665,-0.000904
62.906,66.4773,-0.000904
62.922,66.4874,-0.000904
62.938,66.4970,-0.000904
62.957,66.5087,-0.000904
62.985,66.5252,-0.000904
63.014,66.5420,-0.000913
63.030,66.5509,-0.000913
63.045,66.5594,-0.000913
63.062,66.5678,-0.000913
63.078,66.5765,-0.000913
63.101,66.5884,-0.000913
63.124,66.5993,-0.000913
63.142,66.6079,-0.000913
63.158,66.6152,-0.000913
63.173,66.6220,-0.000913
63.190,66.6294,-0.000913
63.209,66.6372,-0.000913
63.234,66.6475,-0.000979
63.254,66.6549,-0.000979
63.270,66.6610,-0.000979
63.285,66.6664,-0.000979
63.301,66.6720,-0.000979
63.317,66.6775,-0.000979
63.333,66.6829,-0.000979
63.349,66.6877,-0.000979
63.365,66.6925,-0.000979
63.381,66.6972,-0.000979
63.400,66.7023,-0.000979
63.418,66.7072,-0.000979
63.434,66.7111,-0.000979
63.464,66.7180,-0.000979
63.495,66.7245,-0.001083
63.526,66.7302,-0.001083
63.542,66.7328,-0.001083
63.557,66.7352,-0.001083
63.574,66.7376,-0.001083
63.590,66.7396,-0.001083
63.605,66.7415,-0.001083
63.622,66.7433,-0.001083
63.638,66.7448,-0.001083
63.654,66.7462,-0.001083
63.669,66.7472,-0.001083
63.687,66.7483,-0.001083
63.713,66.7494,-0.001186
63.734,66.7499,-0.001186
63.750,66.7500,-0.001186
63.766,66.7500,-0.001186
63.781,66.7500,-0.001186
63.797,66.7500,-0.001186
63.814,66.7500,-0.001186
63.830,66.7500,-0.001186
63.845,66.7500,-0.001186
63.861,66.7500,-0.001186
63.878,66.7500,-0.001186
63.893,66.7500,-0.001186
63.909,66.7500,-0.001186
63.925,66.7500,-0.001186
63.941,66.7500,-0.001186
63.957,66.7500,-0.001205
63.973,66.7500,-0.001205
63.990,66.7500,-0.001205
64.005,66.7500,-0.001205
64.021,66.7500,-0.001205
64.054,66.7500,-0.001205
64.084,66.7500,-0.001205
64.100,66.7500,-0.001205
64.117,66.7500,-0.001205
64.133,66.7500,-0.001205
64.148,66.7500,-0.001205
64.164,66.7500,-0.001205
64.181,66.7500,-0.001205
64.208,66.7500,-0.001130
64.229,66.7500,-0.001130
64.244,66.7500,-0.001130
64.261,66.7500,-0.001130
64.277,66.7500,-0.001130
64.292,66.7500,-0.001130
64.309,66.7500,-0.001130
64.333,66.7500,-0.001130
64.348,66.7500,-0.001130
64.378,66.7500,-0.001130
64.394,66.7500,-0.001130
64.425,66.7500,-0.001130
64.444,66.7500,-0.001130
64.471,66.7500,-0.001130
64.503,66.7500,-0.001130
64.533,66.7500,-0.001130
64.548,66.7500,-0.001130
64.564,66.7500,-0.001130
64.580,66.7500,-0.001130
64.610,66.7500,-0.001130
64.626,66.7500,-0.001130
64.641,66.7500,-0.001130
64.657,66.7500,-0.001130
64.674,66.7500,-0.001130
64.689,66.7500,-0.001130
64.705,66.7500,-0.001167
64.721,66.7500,-0.001167
64.738,66.7500,-0.001167
64.764,66.7500,-0.001167
64.785,66.7500,-0.001167
64.801,66.7500,-0.001167
64.817,66.7500,-0.001167
64.833,66.7500,-0.001167
64.849,66.7500,-0.001167
64.865,66.7500,-0.001167
64.881,66.7500,-0.001167
64.897,66.7500,-0.001167
64.913,66.7500,-0.001167
64.929,66.7500,-0.001167
64.945,66.7500,-0.001167
64.961,66.7500,-0.001167
64.978,66.7500,-0.001186
64.994,66.7500,-0.001186
65.009,66.7500,-0.001186
65.025,66.7500,-0.001186
65.041,66.7500,-0.001186
65.057,66.7500,-0.001186
65.073,66.7500,-0.001186
65.089,66.7500,-0.001186
65.106,66.7500,-0.001186
65.121,66.7500,-0.001186
65.137,66.7500,-0.001186
65.167,66.7500,-0.001186
65.182,66.7500,-0.001186
65.198,66.7500,-0.001186
65.214,66.7500,-0.001243
65.233,66.7500,-0.001243
65.258,66.7500,-0.001243
65.278,66.7500,-0.001243
65.294,66.7500,-0.001243
65.310,66.7500,-0.001243
65.326,66.7500,-0.001243
65.342,66.7500,-0.001243
65.360,66.7500,-0.001243
65.383,66.7500,-0.001243
65.398,66.7500,-0.001243
65.414,66.7500,-0.001243
65.430,66.7500,-0.001243
65.461,66.7500,-0.001243
65.492,66.7500,-0.001214
65.508,66.7500,-0.001214
65.541,66.7500,-0.001214
65.569,66.7500,-0.001214
65.601,66.7500,-0.001214
65.617,66.7500,-0.001214
65.633,66.7500,-0.001214
65.664,66.7500,-0.001214
65.693,66.7500,-0.001214
65.709,66.7500,-0.001214
65.725,66.7500,-0.001148
65.741,66.7500,-0.001148
65.760,66.7500,-0.001148
65.778,66.7500,-0.001148
65.802,66.7500,-0.001148
65.824,66.7500,-0.001148
65.847,66.7500,-0.001148
65.878,66.7500,-0.001148
65.893,66.7500,-0.001148
65.924,66.7500,-0.001148
65.955,66.7500,-0.001148
65.970,66.7500,-0.001205
66.001,66.7500,-0.001205
66.016,66.7500,-0.001205
66.032,66.7500,-0.001205
66.062,66.7500,-0.001205
66.094,66.7500,-0.001205
66.124,66.7500,-0.001205
66.141,66.7500,-0.001205
66.156,66.7500,-0.001205
66.173,66.7500,-0.001205
66.189,66.7500,-0.001205
66.204,66.7500,-0.001205
66.220,66.7500,-0.001205
66.249,66.7500,-0.001205
66.265,66.7500,-0.001205
66.280,66.7500,-0.001205
66.297,66.7500,-0.001205
66.314,66.7500,-0.001205
66.341,66.7500,-0.001205
66.360,66.7500,-0.001205
66.377,66.7500,-0.001205
66.393,66.7500,-0.001205
66.409,66.7500,-0.001205
66.424,66.7500,-0.001205
66.440,66.7500,-0.001205
66.457,66.7500,-0.001205
66.472,66.7500,-0.001177
66.488,66.7500,-0.001177
66.505,66.7500,-0.001177
66.520,66.7500,-0.001177
66.536,66.7500,-0.001177
66.552,66.7500,-0.001177
66.568,66.7500,-0.001177
66.584,66.7500,-0.001177
66.600,66.7500,-0.001177
66.616,66.7500,-0.001177
66.632,66.7500,-0.001177
66.649,66.7500,-0.001177
66.665,66.7500,-0.001177
66.684,66.7500,-0.001177
66.701,66.7500,-0.001177
66.727,66.7500,-0.001195
66.745,66.7500,-0.001195
66.761,66.7500,-0.001195
66.776,66.7500,-0.001195
66.799,66.7500,-0.001195
66.815,66.7500,-0.001195
66.831,66.7500,-0.001195
66.847,66.7500,-0.001195
66.863,66.7500,-0.001195
66.880,66.7500,-0.001195
66.895,66.7500,-0.001195
66.911,66.7500,-0.001195
66.929,66.7500,-0.001195
66.957,66.7500,-0.001167
66.975,66.7500,-0.001167
66.991,66.7500,-0.001167
67.008,66.7500,-0.001167
67.023,66.7500,-0.001167
67.039,66.7500,-0.001167
67.056,66.7500,-0.001167
67.082,66.7500,-0.001167
67.103,66.7500,-0.001167
67.119,66.7500,-0.001167
67.135,66.7500,-0.001167
67.151,66.7500,-0.001167
67.167,66.7500,-0.001167
67.183,66.7500,-0.001167
67.199,66.7500,-0.001167
67.215,66.7500,-0.001186
67.231,66.7500,-0.001186
67.247,66.7500,-0.001186
67.263,66.7500,-0.001186
67.279,66.7500,-0.001186
67.295,66.7500,-0.001186
67.323,66.7500,-0.001186
67.339,66.7500,-0.001186
67.355,66.7500,-0.001186
67.371,66.7500,-0.001186
67.387,66.7500,-0.001186
67.403,66.7500,-0.001186
67.419,66.7500,-0.001186
67.440,66.7500,-0.001186
67.470,66.7500,-0.001195
67.487,66.7500,-0.001195
67.516,66.7500,-0.001195
67.531,66.7500,-0.001195
67.548,66.7500,-0.001195
67.578,66.7500,-0.001195
67.595,66.7500,-0.001195
67.611,66.7500,-0.001195
67.627,66.7500,-0.001195
67.643,66.7500,-0.001195
67.659,66.7500,-0.001195
67.675,66.7500,-0.001195
67.691,66.7500,-0.001195
67.707,66.7500,-0.001158
67.723,66.7500,-0.001158
67.740,66.7500,-0.001158
67.764,66.7500,-0.001158
67.780,66.7500,-0.001158
67.796,66.7500,-0.001158
67.826,66.7500,-0.001158
67.856,66.7500,-0.001158
67.887,66.7500,-0.001158
67.921,66.7500,-0.001158
67.950,66.7500,-0.001158
67.982,66.7500,-0.001158
68.013,66.7500,-0.001177
68.044,66.7500,-0.001177
68.060,66.7500,-0.001177
68.075,66.7500,-0.001177
68.099,66.7500,-0.001177
68.122,66.7500,-0.001177
68.139,66.7500,-0.001177
68.155,66.7500,-0.001177
68.171,66.7500,-0.001177
68.186,66.7500,-0.001177
68.203,66.7500,-0.001177
68.219,66.7500,-0.001177
68.235,66.7500,-0.001177
68.251,66.7500,-0.001233
68.267,66.7500,-0.001233
68.285,66.7500,-0.001233
68.306,66.7500,-0.001233
68.339,66.7500,-0.001233
68.368,66.7500,-0.001233
68.384,66.7500,-0.001233
68.405,66.7500,-0.001233
68.421,66.7500,-0.001233
68.436,66.7500,-0.001233
68.453,66.7500,-0.001233
68.469,66.7500,-0.001233
68.484,66.7500,-0.001290
68.501,66.7500,-0.001290
68.516,66.7500,-0.001290
68.536,66.7500,-0.001290
68.553,66.7500,-0.001290
68.584,66.7500,-0.001290
68.614,66.7495,-0.001290
68.630,66.7490,-0.001290
68.661,66.7474,-0.001290
68.676,66.7464,-0.001290
68.692,66.7451,-0.001290
68.712,66.7433,-0.001290
68.737,66.7405,-0.001337
68.756,66.7380,-0.001337
68.772,66.7358,-0.001337
68.788,66.7332,-0.001337
68.805,66.7306,-0.001337
68.821,66.7277,-0.001337
68.837,66.7247,-0.001337
68.853,66.7215,-0.001337
68.868,66.7182,-0.001337
68.884,66.7146,-0.001337
68.901,66.7107,-0.001337
68.917,66.7067,-0.001337
68.932,66.7027,-0.001337
68.955,66.6963,-0.001337
68.984,66.6877,-0.000565
69.002,66.6822,-0.000565
69.018,66.6767,-0.000565
69.034,66.6715,-0.000565
69.049,66.6661,-0.000565
69.065,66.6602,-0.000565
69.081,66.6542,-0.000565
69.097,66.6481,-0.000565
69.113,66.6416,-0.000565
69.129,66.6352,-0.000565
69.145,66.6284,-0.000565
69.161,66.6214,-0.000565
69.177,66.6144,-0.000565
69.193,66.6069,-0.000565
69.211,66.5975,-0.000565
69.227,66.5907,-0.000565
69.248,66.5802,-0.000565
69.264,66.5721,0.002250
69.295,66.5554,0.002250
69.311,66.5470,0.002250
69.327,66.5381,0.002250
69.358,66.5200,0.002250
69.389,66.5015,0.002250
69.405,66.4912,0.002250
69.436,66.4718,0.002250
69.466,66.4514,0.002250
69.482,66.4411,0.007163
69.511,66.4200,0.007163
69.527,66.4097,0.007163
69.542,66.3984,0.007163
69.558,66.3866,0.007163
69.576,66.3731,0.007163
69.605,66.3508,0.007163
69.622,66.3374,0.007163
69.639,66.3241,0.007163
69.654,66.3115,0.007163
69.671,66.2982,0.007163
69.686,66.2856,0.007163
69.704,66.2703,0.007163
69.729,66.2486,0.004547
69.750,66.2299,0.004547
69.767,66.2152,0.004547
69.782,66.2014,0.004547
69.798,66.1871,0.004547
69.814,66.1721,0.004547
69.830,66.1561,0.004547
69.846,66.1418,0.004547
69.862,66.1263,0.004547
69.879,66.1093,0.004547
69.914,66.0731,0.004547
69.931,66.0570,0.004547
69.948,66.0400,0.004547
69.979,66.0075,-0.000951
70.009,65.9748,-0.000951
70.040,65.9402,-0.000951
70.066,65.9120,-0.000951
70.082,65.8937,-0.000951
70.098,65.8759,-0.000951
70.114,65.8574,-0.000951
70.130,65.8388,-0.000951
70.146,65.8199,-0.000951
70.162,65.8009,-0.000951
70.178,65.7812,-0.000951
70.194,65.7614,-0.000951
70.210,65.7422,-0.000866
70.226,65.7224,-0.000866
70.242,65.7012,-0.000866
70.259,65.6812,-0.000866
70.288,65.6428,-0.000866
70.306,65.6191,-0.000866
70.322,65.5991,-0.000866
70.338,65.5783,-0.000866
70.355,65.5553,-0.000866
70.370,65.5345,-0.000866
70.386,65.5128,-0.000866
70.402,65.4911,-0.000866
70.419,65.4679,-0.000866
70.435,65.4453,-0.000866
70.460,65.4101,-0.000866
70.492,65.3632,-0.000706
70.521,65.3210,-0.000706
70.537,65.2982,-0.000706
70.568,65.2522,-0.000706
70.598,65.2056,-0.000706
70.619,65.1741,-0.000706
70.635,65.1494,-0.000706
70.651,65.1246,-0.000706
70.667,65.0985,-0.000706
70.683,65.0735,-0.000706
70.699,65.0473,-0.000706
70.715,65.0228,-0.000584
70.731,64.9958,-0.000584
70.747,64.9694,-0.000584
70.763,64.9440,-0.000584
70.779,64.9176,-0.000584
70.795,64.8902,-0.000584
70.811,64.8630,-0.000584
70.827,64.8362,-0.000584
70.843,64.8096,-0.000584
70.858,64.7820,-0.000584
70.875,64.7528,-0.000584
70.891,64.7256,-0.000584
70.907,64.6974,-0.000584
70.924,64.6650,-0.000584
70.939,64.6405,-0.000584
70.955,64.6124,-0.000471
70.970,64.5842,-0.000471
70.988,64.5523,-0.000471
71.003,64.5242,-0.000471
71.032,64.4721,-0.000471
71.051,64.4358,-0.000471
71.066,64.4066,-0.000471
71.083,64.3756,-0.000471
71.099,64.3460,-0.000471
71.116,64.3128,-0.000471
71.131,64.2830,-0.000471
71.147,64.2526,-0.000471
71.171,64.2037,-0.000471
71.195,64.1572,-0.000471
71.217,64.1150,-0.000339
71.236,64.0777,-0.000339
71.264,64.0193,-0.000339
71.283,63.9817,-0.000339
71.299,63.9485,-0.000339
71.314,63.9162,-0.000339
71.331,63.8826,-0.000339
71.346,63.8497,-0.000339
71.363,63.8149,-0.000339
71.379,63.7807,-0.000339
71.403,63.7293,-0.000339
71.434,63.6628,-0.000339
71.465,63.5997,-0.000282
71.495,63.5375,-0.000282
71.510,63.5043,-0.000282
71.542,63.4386,-0.000282
71.571,63.3797,-0.000282
71.588,63.3465,-0.000282
71.617,63.2871,-0.000282
71.634,63.2548,-0.000282
71.650,63.2234,-0.000282
71.666,63.1920,-0.000282
71.682,63.1617,-0.000282
71.708,63.1111,-0.000282
71.724,63.0806,-0.000282
71.740,63.0508,-0.000405
71.757,63.0198,-0.000405
71.772,62.9895,-0.000405
71.788,62.9607,-0.000405
71.804,62.9318,-0.000405
71.820,62.9018,-0.000405
71.836,62.8731,-0.000405
71.852,62.8434,-0.000405
71.868,62.8154,-0.000405
71.884,62.7870,-0.000405
71.901,62.7576,-0.000405
71.917,62.7302,-0.000405
71.933,62.7012,-0.000405
71.948,62.6747,-0.000405
71.965,62.6457,-0.000405
71.981,62.6192,-0.000405
71.996,62.5926,-0.000555
72.012,62.5652,-0.000555
72.029,62.5380,-0.000555
72.045,62.5118,-0.000555
72.060,62.4859,-0.000555
72.076,62.4592,-0.000555
72.093,62.4322,-0.000555
72.114,62.3982,-0.000555
72.144,62.3497,-0.000555
72.175,62.3012,-0.000555
72.191,62.2766,-0.000555
72.206,62.2534,-0.000555
72.237,62.2072,-0.000555
72.266,62.1641,-0.000715
72.282,62.1405,-0.000715
72.297,62.1175,-0.000715
72.313,62.0946,-0.000715
72.333,62.0664,-0.000715
72.359,62.0280,-0.000715
72.377,62.0028,-0.000715
72.393,61.9802,-0.000715
72.409,61.9580,-0.000715
72.426,61.9351,-0.000715
72.441,61.9146,-0.000715
72.458,61.8909,-0.000715
72.483,61.8588,-0.000715
72.498,61.8385,-0.000715
72.535,61.7902,-0.000715
72.554,61.7663,-0.000715
72.577,61.7370,-0.000715
72.607,61.7002,-0.000715
72.622,61.6812,-0.000715
72.653,61.6429,-0.000715
72.684,61.6072,-0.000715
72.715,61.5714,-0.000715
72.730,61.5531,-0.000640
72.761,61.5195,-0.000640
72.777,61.5019,-0.000640
72.793,61.4842,-0.000640
72.819,61.4551,-0.000640
72.835,61.4390,-0.000640
72.851,61.4219,-0.000640
72.867,61.4057,-0.000640
72.883,61.3886,-0.000640
72.899,61.3727,-0.000640
72.915,61.3568,-0.000640
72.931,61.3409,-0.000640
72.948,61.3240,-0.000640
72.978,61.2954,-0.000678
72.995,61.2792,-0.000678
73.011,61.2644,-0.000678
73.027,61.2496,-0.000678
73.043,61.2352,-0.000678
73.059,61.2213,-0.000678
73.076,61.2064,-0.000678
73.091,61.1927,-0.000678
73.107,61.1791,-0.000678
73.123,61.1658,-0.000678
73.139,61.1526,-0.000678
73.155,61.1392,-0.000678
73.171,61.1267,-0.000678
73.187,61.1134,-0.000678
73.203,61.1006,-0.000678
73.219,61.0890,-0.000650
73.235,61.0766,-0.000650
73.251,61.0648,-0.000650
73.267,61.0528,-0.000650
73.283,61.0414,-0.000650
73.299,61.0297,-0.000650
73.315,61.0184,-0.000650
73.331,61.0076,-0.000650
73.347,60.9970,-0.000650
73.378,60.9759,-0.000650
73.394,60.9660,-0.000650
73.410,60.9563,-0.000650
73.426,60.9464,-0.000650
73.442,60.9367,-0.000650
73.458,60.9269,-0.000650
73.474,60.9178,-0.000602
73.490,60.9087,-0.000602
73.506,60.8998,-0.000602
73.522,60.8907,-0.000602
73.538,60.8826,-0.000602
73.555,60.8738,-0.000602
73.574,60.8636,-0.000602
73.599,60.8517,-0.000602
73.618,60.8428,-0.000602
73.634,60.8356,-0.000602
73.650,60.8287,-0.000602
73.666,60.8215,-0.000602
73.682,60.8149,-0.000602
73.699,60.8079,-0.000602
73.714,60.8017,-0.000602
73.730,60.7958,-0.000621
73.746,60.7892,-0.000621
73.763,60.7831,-0.000621
73.782,60.7767,-0.000621
73.798,60.7712,-0.000621
73.829,60.7617,-0.000621
73.860,60.7523,-0.000621
73.876,60.7480,-0.000621
73.908,60.7400,-0.000621
73.936,60.7333,-0.000621
73.952,60.7298,-0.000621
73.967,60.7266,-0.000621
73.984,60.7234,-0.000621
74.009,60.7188,-0.000621
74.032,60.7153,-0.000621
74.048,60.7129,-0.000621
74.066,60.7105,-0.000621
74.093,60.7075,-0.000621
74.112,60.7056,-0.000621
74.133,60.7038,-0.000621
74.154,60.7024,-0.000621
74.176,60.7013,-0.000621
74.192,60.7007,-0.000621
74.208,60.7003,-0.000621
74.224,60.7000,-0.000650
74.240,60.7000,-0.000650
74.256,60.7000,-0.000650
74.271,60.7000,-0.000650
74.288,60.7000,-0.000650
74.304,60.7000,-0.000650
74.320,60.7000,-0.000650
74.335,60.7000,-0.000650
74.352,60.7000,-0.000650
74.368,60.7002,-0.000650
74.383,60.7004,-0.000650
74.399,60.7009,-0.000650
74.416,60.7017,-0.000650
74.432,60.7025,-0.000650
74.448,60.7036,-0.000650
74.464,60.7049,-0.000650
74.493,60.7076,-0.000593
74.509,60.7095,-0.000593
74.524,60.7115,-0.000593
74.541,60.7137,-0.000593
74.557,60.7162,-0.000593
74.572,60.7187,-0.000593
74.589,60.7215,-0.000593
74.604,60.7244,-0.000593
74.628,60.7291,-0.000593
74.652,60.7345,-0.000593
74.668,60.7382,-0.000593
74.684,60.7421,-0.000593
74.700,60.7462,-0.000593
74.716,60.7505,-0.000631
74.733,60.7554,-0.000631
74.748,60.7598,-0.000631
74.764,60.7648,-0.000631
74.780,60.7697,-0.000631
74.797,60.7752,-0.000631
74.813,60.7808,-0.000631
74.828,60.7862,-0.000631
74.844,60.7922,-0.000631
74.860,60.7983,-0.000631
74.876,60.8046,-0.000631
74.892,60.8109,-0.000631
74.908,60.8176,-0.000631
74.925,60.8249,-0.000631
74.941,60.8316,-0.000631
74.957,60.8391,-0.000715
74.973,60.8464,-0.000715
74.990,60.8552,-0.000715
75.019,60.8690,-0.000715
75.048,60.8837,-0.000715
75.064,60.8924,-0.000715
75.079,60.9007,-0.000715
75.096,60.9104,-0.000715
75.112,60.9194,-0.000715
75.127,60.9281,-0.000715
75.144,60.9380,-0.000715
75.159,60.9475,-0.000715
75.176,60.9579,-0.000715
75.191,60.9672,-0.000715
75.207,60.9774,-0.000706
75.223,60.9882,-0.000706
75.240,60.9991,-0.000706
75.255,61.0095,-0.000706
75.272,61.0208,-0.000706
75.287,61.0321,-0.000706
75.304,61.0436,-0.000706
75.320,61.0551,-0.000706
75.335,61.0667,-0.000706
75.351,61.0789,-0.000706
75.368,61.0912,-0.000706
75.384,61.1037,-0.000706
75.399,61.1158,-0.000706
75.415,61.1287,-0.000706
75.432,61.1422,-0.000706
75.447,61.1550,-0.000706
75.463,61.1682,-0.000678
75.480,61.1825,-0.000678
75.504,61.2032,-0.000678
75.530,61.2265,-0.000678
75.560,61.2536,-0.000678
75.575,61.2675,-0.000678
75.605,61.2960,-0.000678
75.620,61.3097,-0.000678
75.636,61.3256,-0.000678
75.652,61.3408,-0.000678
75.668,61.3566,-0.000678
75.684,61.3725,-0.000678
75.700,61.3890,-0.000678
75.717,61.4066,-0.000621
75.743,61.4335,-0.000621
75.764,61.4557,-0.000621
75.781,61.4735,-0.000621
75.796,61.4906,-0.000621
75.812,61.5086,-0.000621
75.828,61.5255,-0.000621
75.844,61.5439,-0.000621
75.860,61.5626,-0.000621
75.876,61.5809,-0.000621
75.892,61.5991,-0.000621
75.908,61.6178,-0.000621
75.924,61.6369,-0.000621
75.940,61.6556,-0.000621
75.956,61.6754,-0.000621
75.972,61.6947,-0.000668
75.988,61.7149,-0.000668
76.004,61.7342,-0.000668
76.021,61.7559,-0.000668
76.040,61.7802,-0.000668
76.059,61.8050,-0.000668
76.082,61.8344,-0.000668
76.100,61.8587,-0.000668
76.116,61.8789,-0.000668
76.132,61.9013,-0.000668
76.156,61.9332,-0.000668
76.172,61.9562,-0.000668
76.188,61.9779,-0.000668
76.205,62.0007,-0.000668
76.221,62.0235,-0.000715
76.243,62.0557,-0.000715
76.267,62.0912,-0.000715
76.285,62.1153,-0.000715
76.300,62.1374,-0.000715
76.317,62.1627,-0.000715
76.332,62.1850,-0.000715
76.350,62.2130,-0.000715
76.377,62.2531,-0.000715
76.396,62.2831,-0.000715
76.412,62.3080,-0.000715
76.428,62.3327,-0.000715
76.444,62.3591,-0.000715
76.469,62.3984,-0.000715
76.501,62.4489,-0.000715
76.517,62.4756,-0.000734
76.548,62.5284,-0.000734
76.564,62.5542,-0.000734
76.580,62.5800,-0.000734
76.611,62.6339,-0.000734
76.642,62.6867,-0.000734
76.673,62.7415,-0.000734
76.703,62.7953,-0.000734
76.734,62.8504,-0.000734
76.765,62.9051,-0.000800
76.781,62.9362,-0.000800
76.811,62.9919,-0.000800
76.828,63.0220,-0.000800
76.844,63.0519,-0.000800
76.860,63.0829,-0.000800
76.875,63.1124,-0.000800
76.892,63.1432,-0.000800
76.909,63.1773,-0.000800
76.935,63.2271,-0.000800
76.956,63.2682,-0.000800
76.971,63.2995,-0.000800
76.987,63.3308,-0.000800
77.004,63.3647,-0.000781
77.021,63.3979,-0.000781
77.036,63.4294,-0.000781
77.059,63.4763,-0.000781
77.091,63.5432,-0.000781
77.121,63.6059,-0.000781
77.152,63.6705,-0.000781
77.183,63.7353,-0.000781
77.199,63.7685,-0.000781
77.230,63.8346,-0.000781
77.245,63.8656,-0.000612
77.261,63.8976,-0.000612
77.292,63.9626,-0.000612
77.308,63.9944,-0.000612
77.323,64.0251,-0.000612
77.342,64.0636,-0.000612
77.368,64.1163,-0.000612
77.387,64.1524,-0.000612
77.404,64.1862,-0.000612
77.420,64.2161,-0.000612
77.436,64.2465,-0.000612
77.451,64.2765,-0.000612
77.469,64.3101,-0.000612
77.484,64.3382,-0.000612
77.499,64.3679,-0.000442
77.516,64.3984,-0.000442
77.532,64.4286,-0.000442
77.547,64.4572,-0.000442
77.564,64.4869,-0.000442
77.580,64.5161,-0.000442
77.595,64.5446,-0.000442
77.611,64.5737,-0.000442
77.628,64.6026,-0.000442
77.643,64.6318,-0.000442
77.660,64.6594,-0.000442
77.675,64.6868,-0.000442
77.692,64.7153,-0.000442
77.708,64.7437,-0.000442
77.736,64.7911,-0.000442
77.756,64.8244,-0.000367
77.771,64.8506,-0.000367
77.787,64.8775,-0.000367
77.803,64.9037,-0.000367
77.820,64.9312,-0.000367
77.835,64.9560,-0.000367
77.851,64.9821,-0.000367
77.867,65.0075,-0.000367
77.883,65.0338,-0.000367
77.900,65.0597,-0.000367
77.915,65.0834,-0.000367
77.932,65.1092,-0.000367
77.948,65.1345,-0.000367
77.963,65.1578,-0.000480
77.979,65.1820,-0.000480
77.995,65.2064,-0.000480
78.012,65.2310,-0.000480
78.028,65.2547,-0.000480
78.043,65.2775,-0.000480
78.060,65.3027,-0.000480
78.084,65.3375,-0.000480
78.110,65.3747,-0.000480
78.142,65.4191,-0.000480
78.171,65.4586,-0.000480
78.188,65.4824,-0.000480
78.204,65.5038,-0.000480
78.219,65.5241,-0.000593
78.235,65.5458,-0.000593
78.252,65.5676,-0.000593
78.267,65.5873,-0.000593
78.284,65.6095,-0.000593
78.308,65.6404,-0.000593
78.325,65.6605,-0.000593
78.340,65.6807,-0.000593
78.356,65.6999,-0.000593
78.373,65.7208,-0.000593
78.402,65.7564,-0.000593
78.420,65.7773,-0.000593
78.437,65.7969,-0.000593
78.452,65.8145,-0.000593
78.468,65.8335,-0.000687
78.484,65.8510,-0.000687
78.500,65.8697,-0.000687
78.516,65.8867,-0.000687
78.532,65.9046,-0.000687
78.548,65.9218,-0.000687
78.564,65.9398,-0.000687
78.581,65.9572,-0.000687
78.596,65.9738,-0.000687
78.612,65.9904,-0.000687
78.629,66.0071,-0.000687
78.644,66.0230,-0.000687
78.660,66.0386,-0.000687
78.676,66.0546,-0.000687
78.692,66.0711,-0.000687
78.708,66.0859,-0.000772
78.724,66.1015,-0.000772
78.740,66.1168,-0.000772
78.756,66.1314,-0.000772
78.772,66.1462,-0.000772
78.788,66.1608,-0.000772
78.804,66.1751,-0.000772
78.821,66.1899,-0.000772
78.852,66.2170,-0.000772
78.869,66.2317,-0.000772
78.899,66.2559,-0.000772
78.916,66.2701,-0.000772
78.932,66.2832,-0.000772
78.948,66.2957,-0.000772
78.964,66.3079,-0.000838
78.980,66.3202,-0.000838
78.996,66.3323,-0.000838
79.012,66.3444,-0.000838
79.028,66.3555,-0.000838
79.044,66.3670,-0.000838
79.060,66.3790,-0.000838
79.076,66.3895,-0.000838
79.092,66.4003,-0.000838
79.109,66.4119,-0.000838
79.124,66.4217,-0.000838
79.140,66.4319,-0.000838
79.156,66.4418,-0.000838
79.172,66.4520,-0.000838
79.188,66.4617,-0.000838
79.204,66.4710,-0.000838
79.220,66.4803,-0.000960
79.236,66.4896,-0.000960
79.252,66.4984,-0.000960
79.268,66.5072,-0.000960
79.284,66.5156,-0.000960
79.300,66.5242,-0.000960
79.317,66.5325,-0.000960
79.332,66.5403,-0.000960
79.348,66.5479,-0.000960
79.364,66.5561,-0.000960
79.387,66.5664,-0.000960
79.403,66.5732,-0.000960
79.419,66.5801,-0.000960
79.435,66.5869,-0.000960
79.451,66.5934,-0.000960
79.467,66.5997,-0.001045
79.483,66.6062,-0.001045
79.499,66.6117,-0.001045
79.515,66.6177,-0.001045
79.531,66.6233,-0.001045
79.552,66.6300,-0.001045
79.577,66.6382,-0.001045
79.595,66.6434,-0.001045
79.612,66.6482,-0.001045
79.628,66.6526,-0.001045
79.643,66.6565,-0.001045
79.659,66.6606,-0.001045
79.676,66.6647,-0.001045
79.701,66.6702,-0.001045
79.731,66.6764,-0.001083
79.747,66.6793,-0.001083
79.763,66.6819,-0.001083
79.780,66.6847,-0.001083
79.810,66.6889,-0.001083
79.841,66.6925,-0.001083
79.860,66.6945,-0.001083
79.887,66.6967,-0.001083
79.918,66.6986,-0.001083
79.949,66.6997,-0.001083
79.981,66.7001,-0.001092
80.010,66.7001,-0.001092
80.026,66.7001,-0.001092
80.043,66.7001,-0.001092
80.059,66.7001,-0.001092
80.074,66.7001,-0.001092
80.090,66.7001,-0.001092
80.112,66.7001,-0.001092
80.136,66.7001,-0.001092
80.154,66.7001,-0.001092
80.170,66.7001,-0.001092
80.187,66.7001,-0.001092
80.202,66.7001,-0.001092
80.219,66.7001,-0.001158
80.235,66.7001,-0.001158
80.251,66.7001,-0.001158
80.266,66.7001,-0.001158
80.282,66.7001,-0.001158
80.298,66.7001,-0.001158
80.314,66.7001,-0.001158
80.330,66.7001,-0.001158
80.346,66.7001,-0.001158
80.363,66.7001,-0.001158
80.378,66.7001,-0.001158
80.394,66.7001,-0.001158
80.410,66.7001,-0.001158
80.433,66.7001,-0.001158
80.450,66.7001,-0.001158
80.465,66.7001,-0.001195
80.482,66.7001,-0.001195
80.498,66.7001,-0.001195
80.513,66.7001,-0.001195
80.529,66.7001,-0.001195
80.547,66.7001,-0.001195
80.569,66.7001,-0.001195
80.601,66.7001,-0.001195
80.631,66.7001,-0.001195
80.647,66.7001,-0.001195
80.679,66.7001,-0.001195
80.709,66.7001,-0.001195
80.725,66.7001,-0.001186
80.756,66.7001,-0.001186
80.772,66.7001,-0.001186
80.803,66.7001,-0.001186
80.834,66.7001,-0.001186
80.866,66.7001,-0.001186
80.881,66.7001,-0.001186
80.898,66.7001,-0.001186
80.914,66.7001,-0.001186
80.929,66.7001,-0.001186
80.956,66.7001,-0.001186
80.973,66.7001,-0.001186
80.988,66.7001,-0.001186
81.004,66.7001,-0.001186
81.021,66.7001,-0.001186
81.036,66.7001,-0.001186
81.052,66.7001,-0.001186
81.068,66.7001,-0.001186
81.085,66.7001,-0.001186
81.101,66.7001,-0.001186
81.117,66.7001,-0.001186
81.132,66.7001,-0.001186
81.148,66.7001,-0.001186
81.164,66.7001,-0.001186
81.180,66.7001,-0.001186
81.196,66.7001,-0.001186
81.212,66.7001,-0.001186
81.228,66.7001,-0.001186
81.244,66.7001,-0.001167
81.260,66.7001,-0.001167
81.277,66.7001,-0.001167
81.292,66.7001,-0.001167
81.308,66.7001,-0.001167
81.324,66.7001,-0.001167
81.340,66.7001,-0.001167
81.356,66.7001,-0.001167
81.372,66.7001,-0.001167
81.389,66.7001,-0.001167
81.404,66.7001,-0.001167
81.420,66.7001,-0.001167
81.436,66.7001,-0.001167
81.455,66.7001,-0.001167
81.483,66.7001,-0.001167
81.513,66.7001,-0.001186
81.529,66.7001,-0.001186
81.545,66.7001,-0.001186
81.561,66.7001,-0.001186
81.580,66.7001,-0.001186
81.606,66.7001,-0.001186
81.625,66.7001,-0.001186
81.641,66.7001,-0.001186
81.657,66.7001,-0.001186
81.673,66.7001,-0.001186
81.689,66.7001,-0.001186
81.705,66.7001,-0.001186
81.721,66.7001,-0.001186
81.737,66.7001,-0.001186
81.753,66.7001,-0.001186
81.769,66.7001,-0.001186
81.785,66.7001,-0.001186
81.801,66.7001,-0.001186
81.817,66.7001,-0.001186
81.833,66.7001,-0.001186
81.849,66.7001,-0.001186
81.865,66.7001,-0.001186
81.881,66.7001,-0.001186
81.897,66.7001,-0.001186
81.913,66.7001,-0.001186
81.929,66.7001,-0.001186
81.948,66.7001,-0.001186
81.966,66.7001,-0.001186
81.992,66.7001,-0.001167
82.009,66.7001,-0.001167
82.025,66.7001,-0.001167
82.041,66.7001,-0.001167
82.068,66.7001,-0.001167
82.086,66.7001,-0.001167
82.102,66.7001,-0.001167
82.132,66.7001,-0.001167
82.148,66.7001,-0.001167
82.164,66.7001,-0.001167
82.186,66.7001,-0.001167
82.208,66.7001,-0.001167
82.229,66.7001,-0.001148
82.244,66.7001,-0.001148
82.260,66.7001,-0.001148
82.276,66.7001,-0.001148
82.292,66.7001,-0.001148
82.308,66.7001,-0.001148
82.324,66.7001,-0.001148
82.341,66.7001,-0.001148
82.356,66.7001,-0.001148
82.372,66.7001,-0.001148
82.388,66.7001,-0.001148
82.404,66.7001,-0.001148
82.420,66.7001,-0.001148
82.436,66.7001,-0.001148
82.452,66.7001,-0.001148
82.468,66.7001,-0.001139
82.484,66.7001,-0.001139
82.499,66.7001,-0.001139
82.516,66.7001,-0.001139
82.532,66.7001,-0.001139
82.548,66.7001,-0.001139
82.564,66.7001,-0.001139
82.580,66.7001,-0.001139
82.596,66.7001,-0.001139
82.625,66.7001,-0.001139
82.641,66.7001,-0.001139
82.656,66.7001,-0.001139
82.673,66.7001,-0.001139
82.689,66.7001,-0.001139
82.705,66.7001,-0.001139
82.720,66.7001,-0.001092
82.737,66.7001,-0.001092
82.753,66.7001,-0.001092
82.781,66.7001,-0.001092
82.801,66.7001,-0.001092
82.817,66.7001,-0.001092
82.833,66.7001,-0.001092
82.849,66.7001,-0.001092
82.864,66.7001,-0.001092
82.881,66.7001,-0.001092
82.897,66.7001,-0.001092
82.912,66.7001,-0.001092
82.929,66.7001,-0.001092
82.945,66.7001,-0.001092
82.960,66.7001,-0.001101
82.976,66.7001,-0.001101
82.992,66.7001,-0.001101
83.009,66.7001,-0.001101
83.024,66.7001,-0.001101
83.041,66.7001,-0.001101
83.057,66.7001,-0.001101
83.072,66.7001,-0.001101
83.089,66.7001,-0.001101
83.105,66.7001,-0.001101
83.128,66.7001,-0.001101
83.152,66.7001,-0.001101
83.171,66.7001,-0.001101
83.198,66.7001,-0.001101
83.216,66.7001,-0.001101
83.233,66.7001,-0.001130
83.249,66.7001,-0.001130
83.265,66.7001,-0.001130
83.280,66.7001,-0.001130
83.297,66.7001,-0.001130
83.313,66.7001,-0.001130
83.332,66.7001,-0.001130
83.354,66.7001,-0.001130
83.384,66.7001,-0.001130
83.414,66.7001,-0.001130
83.430,66.7001,-0.001130
83.445,66.7001,-0.001130
83.462,66.7001,-0.001130
83.492,66.7001,-0.001111
83.509,66.7001,-0.001111
83.539,66.7001,-0.001111
83.570,66.7001,-0.001111
83.586,66.7001,-0.001111
83.617,66.7001,-0.001111
83.633,66.7001,-0.001111
83.649,66.7001,-0.001111
83.664,66.7001,-0.001111
83.691,66.7001,-0.001111
83.707,66.7001,-0.001111
83.723,66.7001,-0.001092
83.739,66.7001,-0.001092
83.757,66.7001,-0.001092
83.787,66.7001,-0.001092
83.803,66.7001,-0.001092
83.820,66.7001,-0.001092
83.836,66.7001,-0.001092
83.851,66.7001,-0.001092
83.867,66.7001,-0.001092
83.884,66.7001,-0.001092
83.899,66.7001,-0.001092
83.916,66.7001,-0.001092
83.931,66.7001,-0.001092
83.948,66.7001,-0.001092
83.964,66.7001,-0.001092
83.979,66.7001,-0.001073
83.996,66.7001,-0.001073
84.011,66.7001,-0.001073
84.027,66.7001,-0.001073
84.043,66.7001,-0.001073
84.059,66.7001,-0.001073
84.076,66.7001,-0.001073
84.091,66.7001,-0.001073
84.107,66.7001,-0.001073
84.123,66.7001,-0.001073
84.139,66.7001,-0.001073
84.155,66.7001,-0.001073
84.171,66.7001,-0.001073
84.187,66.7001,-0.001073
84.203,66.7001,-0.001073
84.219,66.7001,-0.001073
84.248,66.7001,-0.001148
84.264,66.7001,-0.001148
84.280,66.7001,-0.001148
84.297,66.7001,-0.001148
84.319,66.7001,-0.001148
84.343,66.7001,-0.001148
84.360,66.7001,-0.001148
84.376,66.7001,-0.001148
84.392,66.7001,-0.001148
84.408,66.7001,-0.001148
84.424,66.7001,-0.001148
84.440,66.7001,-0.001148
84.456,66.7001,-0.001148
84.472,66.7001,-0.001261
84.488,66.7001,-0.001261
84.504,66.7001,-0.001261
84.520,66.7001,-0.001261
84.536,66.7001,-0.001261
84.552,66.7001,-0.001261
84.568,66.7001,-0.001261
84.584,66.7001,-0.001261
84.600,66.7001,-0.001261
84.616,66.7001,-0.001261
84.632,66.7001,-0.001261
84.648,66.7001,-0.001261
84.664,66.7001,-0.001261
84.680,66.7001,-0.001261
84.696,66.7001,-0.001261
84.712,66.7001,-0.001346
84.728,66.7001,-0.001346
84.744,66.6999,-0.001346
84.760,66.6997,-0.001346
84.776,66.6992,-0.001346
84.807,66.6977,-0.001346
84.823,66.6967,-0.001346
84.839,66.6955,-0.001346
84.855,66.6940,-0.001346
84.872,66.6922,-0.001346
84.887,66.6905,-0.001346
84.908,66.6878,-0.001346
84.933,66.6843,-0.001346
84.955,66.6807,-0.001346
84.978,66.6764,-0.001148
84.999,66.6723,-0.001148
85.016,66.6688,-0.001148
85.040,66.6631,-0.001148
85.063,66.6576,-0.001148
85.079,66.6535,-0.001148
85.095,66.6493,-0.001148
85.111,66.6447,-0.001148
85.127,66.6399,-0.001148
85.143,66.6352,-0.001148
85.159,66.6300,-0.001148
85.175,66.6246,-0.001148
85.191,66.6189,-0.001148
85.207,66.6136,0.000405
85.223,66.6077,0.000405
85.239,66.6012,0.000405
85.256,66.5944,0.000405
85.287,66.5822,0.000405
85.303,66.5748,0.000405
85.319,66.5681,0.000405
85.334,66.5610,0.000405
85.363,66.5473,0.000405
85.379,66.5401,0.000405
85.395,66.5319,0.000405
85.411,66.5238,0.000405
85.426,66.5156,0.000405
85.442,66.5071,0.000405
85.458,66.4984,0.004001
85.475,66.4895,0.004001
85.491,66.4799,0.004001
85.506,66.4710,0.004001
85.523,66.4609,0.004001
85.540,66.4509,0.004001
85.555,66.4415,0.004001
85.571,66.4314,0.004001
85.586,66.4214,0.004001
85.602,66.4111,0.004001
85.619,66.3997,0.004001
85.636,66.3886,0.004001
85.651,66.3780,0.004001
85.667,66.3670,0.004001
85.683,66.3550,0.004001
85.699,66.3435,0.004001
85.715,66.3317,0.006166
85.731,66.3193,0.006166
85.751,66.3038,0.006166
85.782,66.2794,0.006166
85.798,66.2672,0.006166
85.815,66.2533,0.006166
85.846,66.2270,0.006166
85.877,66.2012,0.006166
85.907,66.1748,0.006166
85.924,66.1589,0.006166
85.953,66.1323,0.006166
85.970,66.1164,0.002617
85.986,66.1011,0.002617
86.003,66.0853,0.002617
86.030,66.0584,0.002617
86.055,66.0342,0.002617
86.079,66.0101,0.002617
86.099,65.9896,0.002617
86.115,65.9722,0.002617
86.131,65.9560,0.002617
86.146,65.9393,0.002617
86.162,65.9221,0.002617
86.179,65.9037,0.002617
86.195,65.8865,0.002617
86.210,65.8692,-0.000800
86.226,65.8510,-0.000800
86.243,65.8313,-0.000800
86.263,65.8089,-0.000800
86.293,65.7731,-0.000800
86.325,65.7349,-0.000800
86.340,65.7170,-0.000800
86.357,65.6957,-0.000800
86.388,65.6581,-0.000800
86.403,65.6380,-0.000800
86.434,65.5993,-0.000800
86.451,65.5778,-0.000800
86.466,65.5573,-0.000715
86.482,65.5358,-0.000715
86.498,65.5146,-0.000715
86.514,65.4933,-0.000715
86.530,65.4715,-0.000715
86.546,65.4499,-0.000715
86.562,65.4273,-0.000715
86.578,65.4052,-0.000715
86.594,65.3828,-0.000715
86.610,65.3602,-0.000715
86.626,65.3370,-0.000715
86.642,65.3135,-0.000715
86.658,65.2910,-0.000715
86.675,65.2656,-0.000715
86.693,65.2366,-0.000715
86.711,65.2129,-0.000715
86.742,65.1643,-0.000631
86.772,65.1184,-0.000631
86.788,65.0946,-0.000631
86.819,65.0463,-0.000631
86.850,64.9971,-0.000631
86.866,64.9702,-0.000631
86.882,64.9443,-0.000631
86.898,64.9186,-0.000631
86.914,64.8918,-0.000631
86.930,64.8644,-0.000631
86.946,64.8388,-0.000631
86.962,64.8122,-0.000631
86.986,64.7695,-0.000527
87.002,64.7440,-0.000527
87.018,64.7163,-0.000527
87.034,64.6884,-0.000527
87.051,64.6589,-0.000527
87.081,64.6046,-0.000527
87.098,64.5748,-0.000527
87.114,64.5453,-0.000527
87.130,64.5170,-0.000527
87.147,64.4869,-0.000527
87.162,64.4581,-0.000527
87.178,64.4284,-0.000527
87.194,64.3994,-0.000527
87.210,64.3683,-0.000405
87.226,64.3396,-0.000405
87.242,64.3080,-0.000405
87.259,64.2771,-0.000405
87.282,64.2305,-0.000405
87.298,64.2016,-0.000405
87.329,64.1402,-0.000405
87.360,64.0786,-0.000405
87.376,64.0461,-0.000405
87.406,63.9856,-0.000405
87.421,63.9554,-0.000405
87.437,63.9232,-0.000405
87.453,63.8913,-0.000405
87.468,63.8576,-0.000329
87.500,63.7937,-0.000329
87.515,63.7613,-0.000329
87.543,63.7012,-0.000329
87.559,63.6678,-0.000329
87.575,63.6346,-0.000329
87.591,63.5977,-0.000329
87.607,63.5644,-0.000329
87.628,63.5205,-0.000329
87.653,63.4700,-0.000329
87.671,63.4319,-0.000329
87.687,63.4013,-0.000329
87.703,63.3687,-0.000329
87.719,63.3362,-0.000339
87.737,63.2987,-0.000339
87.763,63.2487,-0.000339
87.783,63.2080,-0.000339
87.800,63.1739,-0.000339
87.825,63.1264,-0.000339
87.855,63.0679,-0.000339
87.886,63.0086,-0.000339
87.915,62.9540,-0.000339
87.931,62.9253,-0.000339
87.961,62.8681,-0.000442
87.991,62.8145,-0.000442
88.008,62.7851,-0.000442
88.023,62.7565,-0.000442
88.040,62.7282,-0.000442
88.055,62.7013,-0.000442
88.082,62.6540,-0.000442
88.098,62.6265,-0.000442
88.113,62.5977,-0.000442
88.131,62.5693,-0.000442
88.147,62.5422,-0.000442
88.162,62.5157,-0.000442
88.177,62.4906,-0.000442
88.194,62.4638,-0.000442
88.210,62.4369,-0.000442
88.226,62.4102,-0.000442
88.242,62.3845,-0.000565
88.258,62.3595,-0.000565
88.274,62.3331,-0.000565
88.290,62.3070,-0.000565
88.306,62.2828,-0.000565
88.323,62.2563,-0.000565
88.338,62.2321,-0.000565
88.354,62.2087,-0.000565
88.369,62.1842,-0.000565
88.386,62.1592,-0.000565
88.402,62.1346,-0.000565
88.417,62.1118,-0.000565
88.434,62.0884,-0.000565
88.450,62.0639,-0.000565
88.466,62.0401,-0.000565
88.482,62.0168,-0.000687
88.498,61.9935,-0.000687
88.521,61.9609,-0.000687
88.546,61.9271,-0.000687
88.562,61.9048,-0.000687
88.577,61.8837,-0.000687
88.594,61.8612,-0.000687
88.609,61.8398,-0.000687
88.639,61.8000,-0.000687
88.656,61.7783,-0.000687
88.672,61.7582,-0.000687
88.687,61.7380,-0.000687
88.707,61.7133,-0.000687
88.731,61.6829,-0.000715
88.752,61.6561,-0.000715
88.768,61.6368,-0.000715
88.783,61.6177,-0.000715
88.799,61.5991,-0.000715
88.816,61.5783,-0.000715
88.832,61.5599,-0.000715
88.847,61.5418,-0.000715
88.864,61.5228,-0.000715
88.879,61.5056,-0.000715
88.895,61.4875,-0.000715
88.911,61.4696,-0.000715
88.928,61.4514,-0.000715
88.943,61.4343,-0.000715
88.960,61.4159,-0.000715
88.976,61.3993,-0.000668
88.999,61.3740,-0.000668
89.023,61.3494,-0.000668
89.039,61.3333,-0.000668
89.055,61.3171,-0.000668
89.078,61.2946,-0.000668
89.100,61.2723,-0.000668
89.120,61.2539,-0.000668
89.136,61.2382,-0.000668
89.151,61.2240,-0.000668
89.168,61.2083,-0.000668
89.192,61.1865,-0.000668
89.209,61.1713,-0.000668
89.239,61.1455,-0.000640
89.257,61.1294,-0.000640
89.273,61.1165,-0.000640
89.288,61.1036,-0.000640
89.304,61.0903,-0.000640
89.321,61.0770,-0.000640
89.337,61.0641,-0.000640
89.353,61.0513,-0.000640
89.368,61.0395,-0.000640
89.384,61.0275,-0.000640
89.400,61.0156,-0.000640
89.416,61.0038,-0.000640
89.432,60.9917,-0.000640
89.449,60.9803,-0.000640
89.464,60.9694,-0.000574
89.480,60.9584,-0.000574
89.496,60.9476,-0.000574
89.512,60.9369,-0.000574
89.528,60.9265,-0.000574
89.544,60.9161,-0.000574
89.560,60.9060,-0.000574
89.576,60.8963,-0.000574
89.592,60.8867,-0.000574
89.608,60.8772,-0.000574
89.624,60.8680,-0.000574
89.641,60.8583,-0.000574
89.670,60.8425,-0.000574
89.689,60.8324,-0.000574
89.705,60.8242,-0.000574
89.720,60.8160,-0.000574
89.746,60.8035,-0.000555
89.763,60.7957,-0.000555
89.778,60.7885,-0.000555
89.795,60.7809,-0.000555
89.812,60.7731,-0.000555
89.839,60.7616,-0.000555
89.858,60.7541,-0.000555
89.874,60.7479,-0.000555
89.890,60.7420,-0.000555
89.906,60.7360,-0.000555
89.922,60.7303,-0.000555
89.938,60.7249,-0.000555
89.955,60.7195,-0.000555
89.970,60.7146,-0.000612
89.986,60.7096,-0.000612
90.002,60.7050,-0.000612
90.019,60.7002,-0.000612
90.042,60.6940,-0.000612
90.072,60.6867,-0.000612
90.102,60.6797,-0.000612
90.133,60.6736,-0.000612
90.148,60.6708,-0.000612
90.164,60.6679,-0.000612
90.196,60.6633,-0.000612
90.226,60.6594,-0.000640
90.243,60.6574,-0.000640
90.274,60.6545,-0.000640
90.301,60.6525,-0.000640
90.317,60.6517,-0.000640
90.333,60.6511,-0.000640
90.349,60.6506,-0.000640
90.366,60.6502,-0.000640
90.398,60.6501,-0.000640
90.428,60.6501,-0.000640
90.447,60.6501,-0.000640
90.474,60.6501,-0.000631
90.493,60.6501,-0.000631
90.509,60.6501,-0.000631
90.525,60.6501,-0.000631
90.540,60.6501,-0.000631
90.558,60.6503,-0.000631
90.584,60.6511,-0.000631
90.605,60.6522,-0.000631
90.622,60.6532,-0.000631
90.644,60.6549,-0.000631
90.660,60.6563,-0.000631
90.675,60.6580,-0.000631
90.692,60.6599,-0.000631
90.722,60.6638,-0.000631
90.752,60.6685,-0.000612
90.768,60.6713,-0.000612
90.799,60.6774,-0.000612
90.830,60.6838,-0.000612
90.859,60.6909,-0.000612
90.875,60.6947,-0.000612
90.892,60.6993,-0.000612
90.923,60.7080,-0.000612
90.938,60.7127,-0.000612
90.954,60.7178,-0.000631
90.970,60.7230,-0.000631
90.992,60.7307,-0.000631
91.016,60.7391,-0.000631
91.034,60.7458,-0.000631
91.051,60.7523,-0.000631
91.067,60.7586,-0.000631
91.082,60.7649,-0.000631
91.098,60.7717,-0.000631
91.115,60.7793,-0.000631
91.131,60.7861,-0.000631
91.147,60.7933,-0.000631
91.163,60.8011,-0.000631
91.179,60.8087,-0.000631
91.195,60.8165,-0.000631
91.210,60.8244,-0.000593
91.227,60.8330,-0.000593
91.243,60.8419,-0.000593
91.258,60.8501,-0.000593
91.275,60.8590,-0.000593
91.290,60.8680,-0.000593
91.306,60.8773,-0.000593
91.323,60.8868,-0.000593
91.339,60.8967,-0.000593
91.355,60.9065,-0.000593
91.370,60.9165,-0.000593
91.387,60.9269,-0.000593
91.417,60.9467,-0.000593
91.433,60.9576,-0.000593
91.448,60.9681,-0.000593
91.464,60.9795,-0.000555
91.481,60.9913,-0.000555
91.496,61.0024,-0.000555
91.512,61.0141,-0.000555
91.531,61.0285,-0.000555
91.558,61.0490,-0.000555
91.577,61.0634,-0.000555
91.593,61.0767,-0.000555
91.620,61.0984,-0.000555
91.641,61.1156,-0.000555
91.657,61.1294,-0.000555
91.673,61.1432,-0.000555
91.688,61.1563,-0.000555
91.705,61.1708,-0.000555
91.721,61.1855,-0.000555
91.737,61.2005,-0.000555
91.759,61.2197,-0.000574
91.790,61.2498,-0.000574
91.806,61.2645,-0.000574
91.821,61.2795,-0.000574
91.836,61.2946,-0.000574
91.858,61.3164,-0.000574
91.883,61.3415,-0.000574
91.900,61.3589,-0.000574
91.929,61.3901,-0.000574
91.955,61.4172,-0.000574
91.971,61.4348,-0.000574
91.987,61.4521,-0.000584
92.004,61.4712,-0.000584
92.027,61.4966,-0.000584
92.053,61.5265,-0.000584
92.084,61.5626,-0.000584
92.099,61.5802,-0.000584
92.115,61.5991,-0.000584
92.131,61.6184,-0.000584
92.147,61.6382,-0.000584
92.163,61.6576,-0.000584
92.180,61.6792,-0.000584
92.195,61.6977,-0.000584
92.211,61.7185,-0.000584
92.227,61.7381,-0.000621
92.243,61.7587,-0.000621
92.260,61.7802,-0.000621
92.276,61.8015,-0.000621
92.291,61.8216,-0.000621
92.307,61.8437,-0.000621
92.323,61.8649,-0.000621
92.339,61.8866,-0.000621
92.355,61.9089,-0.000621
92.371,61.9310,-0.000621
92.388,61.9545,-0.000621
92.403,61.9756,-0.000621
92.419,61.9983,-0.000621
92.436,62.0234,-0.000621
92.457,62.0539,-0.000621
92.487,62.0978,-0.000621
92.512,62.1350,-0.000650
92.528,62.1597,-0.000650
92.544,62.1826,-0.000650
92.560,62.2077,-0.000650
92.576,62.2330,-0.000650
92.592,62.2567,-0.000650
92.608,62.2825,-0.000650
92.624,62.3075,-0.000650
92.641,62.3343,-0.000650
92.656,62.3581,-0.000650
92.672,62.3853,-0.000650
92.695,62.4224,-0.000650
92.718,62.4603,-0.000650
92.736,62.4908,-0.000715
92.752,62.5174,-0.000715
92.768,62.5432,-0.000715
92.784,62.5711,-0.000715
92.800,62.5976,-0.000715
92.816,62.6260,-0.000715
92.832,62.6539,-0.000715
92.848,62.6816,-0.000715
92.864,62.7095,-0.000715
92.880,62.7390,-0.000715
92.896,62.7668,-0.000715
92.912,62.7943,-0.000715
92.928,62.8236,-0.000715
92.944,62.8537,-0.000715
92.960,62.8817,-0.000753
92.976,62.9113,-0.000753
92.992,62.9412,-0.000753
93.008,62.9707,-0.000753
93.025,63.0025,-0.000753
93.055,63.0610,-0.000753
93.071,63.0905,-0.000753
93.087,63.1217,-0.000753
93.103,63.1547,-0.000753
93.127,63.2031,-0.000753
93.150,63.2458,-0.000753
93.167,63.2789,-0.000753
93.183,63.3120,-0.000753
93.199,63.3424,-0.000753
93.215,63.3757,-0.000659
93.231,63.4077,-0.000659
93.253,63.4531,-0.000659
93.276,63.5015,-0.000659
93.295,63.5396,-0.000659
93.311,63.5743,-0.000659
93.327,63.6078,-0.000659
93.343,63.6406,-0.000659
93.359,63.6754,-0.000659
93.375,63.7111,-0.000659
93.391,63.7448,-0.000659
93.407,63.7757,-0.000659
93.423,63.8098,-0.000659
93.439,63.8438,-0.000659
93.455,63.8754,-0.000659
93.471,63.9080,-0.000461
93.487,63.9405,-0.000461
93.503,63.9733,-0.000461
93.519,64.0050,-0.000461
93.535,64.0373,-0.000461
93.550,64.0684,-0.000461
93.567,64.0998,-0.000461
93.583,64.1319,-0.000461
93.612,64.1907,-0.000461
93.629,64.2202,-0.000461
93.645,64.2507,-0.000461
93.661,64.2810,-0.000461
93.677,64.3132,-0.000461
93.709,64.3718,-0.000348
93.725,64.4010,-0.000348
93.741,64.4317,-0.000348
93.758,64.4614,-0.000348
93.786,64.5129,-0.000348
93.807,64.5501,-0.000348
93.831,64.5935,-0.000348
93.847,64.6223,-0.000348
93.871,64.6621,-0.000348
93.893,64.7022,-0.000348
93.909,64.7287,-0.000348
93.927,64.7602,-0.000348
93.948,64.7953,-0.000348
93.964,64.8218,-0.000367
93.981,64.8491,-0.000367
93.997,64.8755,-0.000367
94.012,64.9008,-0.000367
94.029,64.9271,-0.000367
94.044,64.9527,-0.000367
94.061,64.9780,-0.000367
94.077,65.0045,-0.000367
94.093,65.0286,-0.000367
94.109,65.0544,-0.000367
94.125,65.0796,-0.000367
94.141,65.1034,-0.000367
94.169,65.1463,-0.000367
94.185,65.1710,-0.000367
94.201,65.1942,-0.000367
94.217,65.2171,-0.000442
94.234,65.2423,-0.000442
94.249,65.2646,-0.000442
94.264,65.2864,-0.000442
94.281,65.3107,-0.000442
94.296,65.3323,-0.000442
94.313,65.3566,-0.000442
94.329,65.3777,-0.000442
94.344,65.3999,-0.000442
94.360,65.4211,-0.000442
94.376,65.4431,-0.000442
94.392,65.4644,-0.000442
94.409,65.4866,-0.000442
94.425,65.5073,-0.000442
94.440,65.5278,-0.000442
94.456,65.5482,-0.000442
94.472,65.5692,-0.000442
94.489,65.5902,-0.000442
94.504,65.6095,-0.000555
94.520,65.6295,-0.000555
94.537,65.6503,-0.000555
94.553,65.6694,-0.000555
94.568,65.6881,-0.000555
94.584,65.7074,-0.000555
94.600,65.7268,-0.000555
94.616,65.7452,-0.000555
94.633,65.7648,-0.000555
94.648,65.7824,-0.000555
94.664,65.8008,-0.000555
94.681,65.8189,-0.000555
94.711,65.8530,-0.000555
94.733,65.8778,-0.000555
94.758,65.9038,-0.000668
94.774,65.9204,-0.000668
94.790,65.9369,-0.000668
94.806,65.9537,-0.000668
94.821,65.9696,-0.000668
94.838,65.9865,-0.000668
94.854,66.0019,-0.000668
94.870,66.0177,-0.000668
94.885,66.0327,-0.000668
94.906,66.0531,-0.000668
94.927,66.0727,-0.000668
94.942,66.0874,-0.000668
94.973,66.1145,-0.000668
95.003,66.1419,-0.000791
95.018,66.1548,-0.000791
95.034,66.1690,-0.000791
95.065,66.1945,-0.000791
95.096,66.2195,-0.000791
95.112,66.2321,-0.000791
95.127,66.2451,-0.000791
95.158,66.2686,-0.000791
95.188,66.2909,-0.000791
95.212,66.3086,-0.000791
95.235,66.3250,-0.000791
95.253,66.3370,-0.000791
95.281,66.3563,-0.000866
95.299,66.3678,-0.000866
95.314,66.3776,-0.000866
95.330,66.3878,-0.000866
95.347,66.3987,-0.000866
95.374,66.4155,-0.000866
95.394,66.4267,-0.000866
95.410,66.4363,-0.000866
95.426,66.4448,-0.000866
95.442,66.4541,-0.000866
95.458,66.4624,-0.000866
95.474,66.4707,-0.000866
95.490,66.4789,-0.000866
95.506,66.4870,-0.000922
95.522,66.4950,-0.000922
95.538,66.5025,-0.000922
95.554,66.5100,-0.000922
95.570,66.5172,-0.000922
95.586,66.5243,-0.000922
95.602,66.5314,-0.000922
95.618,66.5378,-0.000922
95.634,66.5443,-0.000922
95.650,66.5507,-0.000922
95.666,66.5571,-0.000922
95.682,66.5629,-0.000922
95.698,66.5685,-0.000922
95.715,66.5743,-0.000922
95.744,66.5840,-0.000922
95.773,66.5928,-0.000988
95.790,66.5975,-0.000988
95.805,66.6017,-0.000988
95.821,66.6062,-0.000988
95.837,66.6100,-0.000988
95.853,66.6140,-0.000988
95.869,66.6175,-0.000988
95.885,66.6209,-0.000988
95.901,66.6243,-0.000988
95.917,66.6274,-0.000988
95.933,66.6301,-0.000988
95.949,66.6328,-0.000988
95.965,66.6353,-0.000988
95.981,66.6377,-0.000988
95.997,66.6398,-0.001054
96.013,66.6416,-0.001054
96.030,66.6434,-0.001054
96.054,66.6456,-0.001054
96.085,66.6478,-0.001054
96.101,66.6487,-0.001054
96.131,66.6497,-0.001054
96.147,66.6499,-0.001054
96.178,66.6501,-0.001054
96.193,66.6501,-0.001054
96.224,66.6501,-0.001054
96.240,66.6501,-0.001139
96.255,66.6501,-0.001139
96.286,66.6501,-0.001139
