Elapsed Time (s),Position (mm),Force (N)
-0.016,66.9501,-0.001591
0.000,66.9501,-0.001591
0.016,66.9501,-0.001591
0.032,66.9501,-0.001591
0.048,66.9501,-0.001591
0.065,66.9501,-0.001591
0.082,66.9501,-0.001591
0.112,66.9501,-0.001591
0.129,66.9501,-0.001591
0.145,66.9501,-0.001591
0.161,66.9501,-0.001516
0.190,66.9501,-0.001516
0.208,66.9501,-0.001516
0.224,66.9501,-0.001516
0.241,66.9501,-0.001516
0.260,66.9501,-0.001516
0.284,66.9501,-0.001516
0.304,66.9501,-0.001516
0.320,66.9501,-0.001516
0.336,66.9501,-0.001516
0.352,66.9501,-0.001516
0.368,66.9501,-0.001516
0.384,66.9501,-0.001516
0.400,66.9501,-0.001534
0.416,66.9501,-0.001534
0.432,66.9501,-0.001534
0.448,66.9501,-0.001534
0.464,66.9501,-0.001534
0.480,66.9501,-0.001534
0.496,66.9501,-0.001534
0.512,66.9501,-0.001534
0.528,66.9501,-0.001534
0.544,66.9501,-0.001534
0.560,66.9501,-0.001534
0.576,66.9501,-0.001534
0.592,66.9501,-0.001534
0.608,66.9501,-0.001534
0.624,66.9501,-0.001534
0.639,66.9501,-0.001572
0.656,66.9501,-0.001572
0.672,66.9501,-0.001572
0.688,66.9501,-0.001572
0.704,66.9501,-0.001572
0.720,66.9501,-0.001572
0.737,66.9501,-0.001572
0.754,66.9501,-0.001572
0.769,66.9501,-0.001572
0.784,66.9501,-0.001572
0.800,66.9501,-0.001572
0.816,66.9501,-0.001572
0.832,66.9501,-0.001572
0.848,66.9501,-0.001572
0.864,66.9501,-0.001572
0.879,66.9501,-0.001572
0.895,66.9501,-0.001591
0.912,66.9501,-0.001591
0.928,66.9501,-0.001591
0.944,66.9501,-0.001591
0.960,66.9501,-0.001591
0.976,66.9501,-0.001591
0.992,66.9501,-0.001591
1.008,66.9501,-0.001591
1.024,66.9501,-0.001591
1.040,66.9501,-0.001591
1.055,66.9501,-0.001591
1.072,66.9501,-0.001591
1.087,66.9501,-0.001591
1.105,66.9501,-0.001591
1.120,66.9501,-0.001591
1.135,66.9501,-0.001553
1.152,66.9501,-0.001553
1.168,66.9501,-0.001553
1.198,66.9501,-0.001553
1.216,66.9501,-0.001553
1.232,66.9501,-0.001553
1.247,66.9501,-0.001553
1.264,66.9501,-0.001553
1.280,66.9501,-0.001553
1.301,66.9501,-0.001553
1.323,66.9501,-0.001553
1.343,66.9501,-0.001553
1.360,66.9501,-0.001553
1.376,66.9501,-0.001553
1.391,66.9501,-0.001600
1.408,66.9501,-0.001600
1.424,66.9501,-0.001600
1.439,66.9501,-0.001600
1.456,66.9501,-0.001600
1.472,66.9501,-0.001600
1.489,66.9501,-0.001600
1.510,66.9501,-0.001600
1.541,66.9501,-0.001600
1.565,66.9501,-0.001600
1.588,66.9501,-0.001600
1.618,66.9501,-0.001600
1.650,66.9501,-0.001600
1.665,66.9501,-0.001600
1.696,66.9501,-0.001600
1.727,66.9501,-0.001600
1.744,66.9501,-0.001600
1.775,66.9501,-0.001600
1.805,66.9501,-0.001600
1.820,66.9501,-0.001600
1.836,66.9501,-0.001600
1.852,66.9501,-0.001600
1.869,66.9501,-0.001600
1.885,66.9501,-0.001516
1.901,66.9501,-0.001516
1.917,66.9501,-0.001516
1.932,66.9501,-0.001516
1.948,66.9501,-0.001516
1.964,66.9501,-0.001516
1.981,66.9501,-0.001516
1.996,66.9501,-0.001516
2.012,66.9501,-0.001516
2.028,66.9501,-0.001516
2.044,66.9501,-0.001516
2.060,66.9501,-0.001516
2.076,66.9501,-0.001516
2.092,66.9501,-0.001516
2.108,66.9501,-0.001516
2.125,66.9501,-0.001544
2.140,66.9501,-0.001544
2.157,66.9501,-0.001544
2.172,66.9501,-0.001544
2.188,66.9501,-0.001544
2.204,66.9501,-0.001544
2.220,66.9501,-0.001544
2.237,66.9501,-0.001544
2.253,66.9501,-0.001544
2.269,66.9501,-0.001544
2.290,66.9501,-0.001544
2.315,66.9501,-0.001544
2.332,66.9501,-0.001544
2.348,66.9501,-0.001544
2.364,66.9501,-0.001544
2.380,66.9501,-0.001534
2.396,66.9501,-0.001534
2.412,66.9501,-0.001534
2.428,66.9501,-0.001534
2.444,66.9501,-0.001534
2.460,66.9501,-0.001534
2.476,66.9501,-0.001534
2.492,66.9501,-0.001534
2.508,66.9501,-0.001534
2.524,66.9501,-0.001534
2.540,66.9501,-0.001534
2.556,66.9501,-0.001534
2.572,66.9501,-0.001534
2.588,66.9501,-0.001534
2.604,66.9501,-0.001534
2.621,66.9501,-0.001534
2.641,66.9501,-0.001534
2.658,66.9501,-0.001534
2.688,66.9501,-0.001534
2.703,66.9501,-0.001534
2.719,66.9501,-0.001534
2.735,66.9501,-0.001534
2.750,66.9501,-0.001534
2.765,66.9501,-0.001534
2.781,66.9501,-0.001534
2.797,66.9501,-0.001534
2.828,66.9501,-0.001534
2.845,66.9501,-0.001534
2.860,66.9501,-0.001534
2.876,66.9501,-0.001534
2.892,66.9501,-0.001534
2.908,66.9501,-0.001544
2.924,66.9501,-0.001544
2.940,66.9501,-0.001544
2.956,66.9501,-0.001544
2.972,66.9501,-0.001544
2.988,66.9501,-0.001544
3.005,66.9501,-0.001544
3.020,66.9501,-0.001544
3.036,66.9501,-0.001544
3.052,66.9501,-0.001544
3.068,66.9501,-0.001544
3.084,66.9501,-0.001544
3.100,66.9501,-0.001544
3.117,66.9501,-0.001544
3.132,66.9501,-0.001544
3.154,66.9501,-0.001544
3.170,66.9501,-0.001544
3.186,66.9501,-0.001525
3.202,66.9501,-0.001525
3.218,66.9501,-0.001525
3.234,66.9501,-0.001525
3.250,66.9501,-0.001525
3.266,66.9501,-0.001525
3.282,66.9501,-0.001525
3.298,66.9501,-0.001525
3.319,66.9501,-0.001525
3.340,66.9501,-0.001525
3.371,66.9501,-0.001525
3.402,66.9501,-0.001525
3.432,66.9501,-0.001563
3.449,66.9501,-0.001563
3.479,66.9501,-0.001563
3.510,66.9501,-0.001563
3.540,66.9501,-0.001563
3.556,66.9501,-0.001563
3.571,66.9501,-0.001563
3.587,66.9501,-0.001563
3.617,66.9501,-0.001563
3.634,66.9501,-0.001563
3.650,66.9501,-0.001610
3.676,66.9501,-0.001610
3.692,66.9501,-0.001610
3.708,66.9501,-0.001610
3.723,66.9501,-0.001610
3.741,66.9501,-0.001610
3.756,66.9501,-0.001610
3.772,66.9501,-0.001610
3.787,66.9501,-0.001610
3.805,66.9501,-0.001610
3.832,66.9501,-0.001610
3.851,66.9501,-0.001610
3.867,66.9501,-0.001610
3.884,66.9501,-0.001628
3.899,66.9501,-0.001628
3.916,66.9501,-0.001628
3.931,66.9501,-0.001628
3.948,66.9501,-0.001628
3.963,66.9501,-0.001628
3.980,66.9501,-0.001628
3.996,66.9501,-0.001628
4.011,66.9501,-0.001628
4.027,66.9501,-0.001628
4.045,66.9501,-0.001628
4.064,66.9501,-0.001628
4.094,66.9501,-0.001628
4.125,66.9496,-0.001628
4.155,66.9485,-0.001704
4.173,66.9475,-0.001704
4.202,66.9454,-0.001704
4.228,66.9429,-0.001704
4.245,66.9412,-0.001704
4.261,66.9392,-0.001704
4.277,66.9368,-0.001704
4.295,66.9343,-0.001704
4.325,66.9294,-0.001704
4.343,66.9260,-0.001704
4.372,66.9202,-0.001374
4.388,66.9165,-0.001374
4.405,66.9128,-0.001374
4.421,66.9089,-0.001374
4.437,66.9047,-0.001374
4.465,66.8969,-0.001374
4.488,66.8901,-0.001374
4.512,66.8830,-0.001374
4.533,66.8762,-0.001374
4.548,66.8708,-0.001374
4.564,66.8654,-0.001374
4.580,66.8594,-0.001374
4.597,66.8530,-0.001374
4.612,66.8473,-0.001374
4.629,66.8407,0.000009
4.644,66.8342,0.000009
4.660,66.8274,0.000009
4.676,66.8204,0.000009
4.692,66.8132,0.000009
4.708,66.8058,0.000009
4.725,66.7979,0.000009
4.740,66.7906,0.000009
4.769,66.7757,0.000009
4.792,66.7642,0.000009
4.822,66.7472,0.000009
4.838,66.7387,0.000009
4.869,66.7210,0.000009
4.901,66.7015,-0.000075
4.929,66.6839,-0.000075
4.945,66.6734,-0.000075
4.961,66.6632,-0.000075
4.992,66.6429,-0.000075
5.008,66.6308,-0.000075
5.025,66.6202,-0.000075
5.040,66.6088,-0.000075
5.056,66.5976,-0.000075
5.074,66.5847,-0.000075
5.100,66.5650,-0.000075
5.120,66.5490,-0.000075
5.136,66.5360,-0.000075
5.153,66.5227,-0.000075
5.178,66.5017,-0.001214
5.200,66.4839,-0.001214
5.216,66.4710,-0.001214
5.232,66.4570,-0.001214
5.248,66.4430,-0.001214
5.264,66.4282,-0.001214
5.280,66.4150,-0.001214
5.296,66.4005,-0.001214
5.321,66.3771,-0.001214
5.337,66.3618,-0.001214
5.353,66.3473,-0.001214
5.370,66.3308,-0.001214
5.388,66.3127,-0.001214
5.403,66.2983,-0.001214
5.426,66.2750,-0.001214
5.457,66.2438,-0.001280
5.488,66.2109,-0.001280
5.519,66.1784,-0.001280
5.534,66.1615,-0.001280
5.565,66.1266,-0.001280
5.581,66.1087,-0.001280
5.612,66.0737,-0.001280
5.643,66.0381,-0.001280
5.674,66.0013,-0.001261
5.690,65.9817,-0.001261
5.705,65.9636,-0.001261
5.721,65.9446,-0.001261
5.737,65.9248,-0.001261
5.755,65.9010,-0.001261
5.774,65.8764,-0.001261
5.799,65.8457,-0.001261
5.817,65.8217,-0.001261
5.833,65.8006,-0.001261
5.849,65.7794,-0.001261
5.873,65.7484,-0.001261
5.889,65.7262,-0.001261
5.905,65.7040,-0.001148
5.921,65.6828,-0.001148
5.937,65.6606,-0.001148
5.953,65.6382,-0.001148
5.969,65.6155,-0.001148
5.984,65.5922,-0.001148
6.001,65.5685,-0.001148
6.017,65.5455,-0.001148
6.033,65.5225,-0.001148
6.049,65.4994,-0.001148
6.070,65.4663,-0.001148
6.093,65.4322,-0.001148
6.114,65.4005,-0.001148
6.130,65.3761,-0.001148
6.156,65.3362,-0.001054
6.177,65.3031,-0.001054
6.193,65.2774,-0.001054
6.208,65.2526,-0.001054
6.224,65.2272,-0.001054
6.242,65.1987,-0.001054
6.265,65.1597,-0.001054
6.296,65.1093,-0.001054
6.312,65.0822,-0.001054
6.343,65.0303,-0.001054
6.374,64.9766,-0.001054
6.398,64.9356,-0.000932
6.414,64.9074,-0.000932
6.430,64.8791,-0.000932
6.445,64.8512,-0.000932
6.462,64.8216,-0.000932
6.477,64.7943,-0.000932
6.494,64.7647,-0.000932
6.510,64.7347,-0.000932
6.525,64.7066,-0.000932
6.542,64.6765,-0.000932
6.558,64.6466,-0.000932
6.574,64.6167,-0.000932
6.589,64.5873,-0.000932
6.606,64.5562,-0.000932
6.621,64.5258,-0.000932
6.638,64.4939,-0.000932
6.654,64.4635,-0.000781
6.670,64.4314,-0.000781
6.686,64.4000,-0.000781
6.704,64.3620,-0.000781
6.732,64.3086,-0.000781
6.749,64.2754,-0.000781
6.765,64.2427,-0.000781
6.781,64.2105,-0.000781
6.798,64.1770,-0.000781
6.814,64.1422,-0.000781
6.829,64.1118,-0.000781
6.845,64.0787,-0.000781
6.862,64.0442,-0.000781
6.879,64.0080,-0.000781
6.904,63.9539,-0.000781
6.925,63.9090,-0.000612
6.942,63.8738,-0.000612
6.957,63.8407,-0.000612
6.974,63.8047,-0.000612
6.990,63.7724,-0.000612
7.006,63.7394,-0.000612
7.027,63.6963,-0.000612
7.043,63.6609,-0.000612
7.073,63.6031,-0.000612
7.088,63.5714,-0.000612
7.119,63.5074,-0.000612
7.150,63.4492,-0.000537
7.167,63.4152,-0.000537
7.183,63.3824,-0.000537
7.212,63.3275,-0.000537
7.229,63.2954,-0.000537
7.245,63.2651,-0.000537
7.261,63.2352,-0.000537
7.277,63.2051,-0.000537
7.294,63.1731,-0.000537
7.309,63.1457,-0.000537
7.325,63.1166,-0.000537
7.341,63.0872,-0.000537
7.359,63.0548,-0.000537
7.374,63.0271,-0.000537
7.390,62.9993,-0.000565
7.406,62.9698,-0.000565
7.422,62.9421,-0.000565
7.438,62.9152,-0.000565
7.453,62.8883,-0.000565
7.476,62.8486,-0.000565
7.492,62.8210,-0.000565
7.509,62.7927,-0.000565
7.524,62.7671,-0.000565
7.541,62.7381,-0.000565
7.556,62.7132,-0.000565
7.573,62.6867,-0.000565
7.588,62.6602,-0.000565
7.605,62.6341,-0.000565
7.621,62.6084,-0.000565
7.636,62.5837,-0.000499
7.652,62.5573,-0.000499
7.669,62.5316,-0.000499
7.684,62.5079,-0.000499
7.700,62.4828,-0.000499
7.716,62.4581,-0.000499
7.733,62.4315,-0.000499
7.753,62.4021,-0.000499
7.784,62.3548,-0.000499
7.800,62.3308,-0.000499
7.816,62.3088,-0.000499
7.846,62.2637,-0.000499
7.863,62.2389,-0.000499
7.893,62.1984,-0.000405
7.911,62.1729,-0.000405
7.939,62.1335,-0.000405
7.956,62.1111,-0.000405
7.972,62.0885,-0.000405
7.988,62.0684,-0.000405
8.004,62.0467,-0.000405
8.029,62.0142,-0.000405
8.048,61.9895,-0.000405
8.078,61.9503,-0.000405
8.109,61.9131,-0.000405
8.125,61.8932,-0.000329
8.155,61.8558,-0.000329
8.172,61.8367,-0.000329
8.189,61.8164,-0.000329
8.204,61.7988,-0.000329
8.221,61.7793,-0.000329
8.250,61.7458,-0.000329
8.268,61.7250,-0.000329
8.286,61.7053,-0.000329
8.304,61.6848,-0.000329
8.327,61.6611,-0.000329
8.348,61.6382,-0.000329
8.364,61.6223,-0.000329
8.380,61.6050,-0.000282
8.396,61.5890,-0.000282
8.412,61.5724,-0.000282
8.428,61.5567,-0.000282
8.444,61.5407,-0.000282
8.460,61.5251,-0.000282
8.476,61.5095,-0.000282
8.492,61.4947,-0.000282
8.508,61.4794,-0.000282
8.524,61.4645,-0.000282
8.540,61.4498,-0.000282
8.556,61.4354,-0.000282
8.584,61.4106,-0.000282
8.601,61.3958,-0.000282
8.617,61.3817,-0.000282
8.633,61.3679,-0.000301
8.650,61.3541,-0.000301
8.680,61.3292,-0.000301
8.699,61.3138,-0.000301
8.726,61.2930,-0.000301
8.744,61.2792,-0.000301
8.760,61.2671,-0.000301
8.776,61.2555,-0.000301
8.792,61.2439,-0.000301
8.808,61.2320,-0.000301
8.824,61.2209,-0.000301
8.840,61.2104,-0.000301
8.856,61.1995,-0.000301
8.872,61.1886,-0.000301
8.888,61.1778,-0.000301
8.904,61.1681,-0.000367
8.919,61.1581,-0.000367
8.936,61.1480,-0.000367
8.952,61.1381,-0.000367
8.968,61.1289,-0.000367
8.984,61.1194,-0.000367
9.000,61.1102,-0.000367
9.015,61.1015,-0.000367
9.032,61.0925,-0.000367
9.048,61.0843,-0.000367
9.065,61.0752,-0.000367
9.081,61.0663,-0.000367
9.110,61.0526,-0.000367
9.128,61.0440,-0.000367
9.143,61.0370,-0.000367
9.160,61.0296,-0.000424
9.175,61.0229,-0.000424
9.192,61.0159,-0.000424
9.208,61.0092,-0.000424
9.224,61.0030,-0.000424
9.240,60.9967,-0.000424
9.256,60.9906,-0.000424
9.272,60.9848,-0.000424
9.288,60.9792,-0.000424
9.303,60.9739,-0.000424
9.320,60.9683,-0.000424
9.336,60.9636,-0.000424
9.352,60.9584,-0.000424
9.368,60.9539,-0.000424
9.384,60.9496,-0.000424
9.400,60.9454,-0.000414
9.415,60.9413,-0.000414
9.433,60.9369,-0.000414
9.448,60.9335,-0.000414
9.463,60.9301,-0.000414
9.480,60.9268,-0.000414
9.496,60.9234,-0.000414
9.512,60.9207,-0.000414
9.527,60.9180,-0.000414
9.543,60.9155,-0.000414
9.561,60.9130,-0.000414
9.587,60.9095,-0.000414
9.607,60.9073,-0.000414
9.623,60.9057,-0.000414
9.651,60.9034,-0.000386
9.667,60.9023,-0.000386
9.684,60.9015,-0.000386
9.700,60.9008,-0.000386
9.716,60.9005,-0.000386
9.732,60.9002,-0.000386
9.748,60.9001,-0.000386
9.764,60.9001,-0.000386
9.779,60.9001,-0.000386
9.795,60.9001,-0.000386
9.812,60.9001,-0.000386
9.827,60.9001,-0.000386
9.844,60.9001,-0.000386
9.859,60.9001,-0.000386
9.876,60.9001,-0.000386
9.891,60.9001,-0.000320
9.908,60.9001,-0.000320
9.923,60.9001,-0.000320
9.939,60.9001,-0.000320
9.956,60.9001,-0.000320
9.971,60.9001,-0.000320
9.988,60.9001,-0.000320
10.020,60.9001,-0.000320
10.035,60.9001,-0.000320
10.052,60.9001,-0.000320
10.068,60.9001,-0.000320
10.084,60.9001,-0.000320
10.100,60.9001,-0.000320
10.118,60.9001,-0.000320
10.134,60.9001,-0.000320
10.149,60.9001,-0.000320
10.175,60.9001,-0.000320
10.209,60.9001,-0.000264
10.226,60.9001,-0.000264
10.241,60.9001,-0.000264
10.257,60.9001,-0.000264
10.273,60.9003,-0.000264
10.290,60.9007,-0.000264
10.305,60.9012,-0.000264
10.321,60.9021,-0.000264
10.337,60.9029,-0.000264
10.354,60.9042,-0.000264
10.369,60.9056,-0.000292
10.386,60.9072,-0.000292
10.401,60.9088,-0.000292
10.418,60.9108,-0.000292
10.439,60.9137,-0.000292
10.455,60.9161,-0.000292
10.471,60.9186,-0.000292
10.501,60.9240,-0.000292
10.532,60.9302,-0.000292
10.563,60.9373,-0.000292
10.580,60.9418,-0.000292
10.610,60.9491,-0.000292
10.627,60.9542,-0.000292
10.655,60.9625,-0.000377
10.673,60.9679,-0.000377
10.692,60.9743,-0.000377
10.717,60.9828,-0.000377
10.748,60.9942,-0.000377
10.764,61.0004,-0.000377
10.780,61.0065,-0.000377
10.796,61.0132,-0.000377
10.812,61.0199,-0.000377
10.828,61.0267,-0.000377
10.844,61.0343,-0.000377
10.860,61.0410,-0.000377
10.877,61.0490,-0.000377
10.904,61.0619,-0.000471
10.924,61.0722,-0.000471
10.942,61.0822,-0.000471
10.958,61.0900,-0.000471
10.980,61.1023,-0.000471
11.012,61.1204,-0.000471
11.028,61.1292,-0.000471
11.059,61.1484,-0.000471
11.089,61.1664,-0.000471
11.105,61.1768,-0.000471
11.135,61.1970,-0.000471
11.150,61.2068,-0.000527
11.166,61.2177,-0.000527
11.181,61.2284,-0.000527
11.213,61.2516,-0.000527
11.229,61.2629,-0.000527
11.244,61.2742,-0.000527
11.260,61.2863,-0.000527
11.276,61.2995,-0.000527
11.302,61.3193,-0.000527
11.317,61.3315,-0.000527
11.333,61.3443,-0.000527
11.349,61.3572,-0.000527
11.365,61.3706,-0.000527
11.381,61.3847,-0.000527
11.397,61.3981,-0.000593
11.413,61.4126,-0.000593
11.430,61.4274,-0.000593
11.445,61.4412,-0.000593
11.461,61.4552,-0.000593
11.477,61.4700,-0.000593
11.496,61.4885,-0.000593
11.521,61.5117,-0.000593
11.541,61.5313,-0.000593
11.558,61.5475,-0.000593
11.573,61.5629,-0.000593
11.589,61.5788,-0.000593
11.605,61.5951,-0.000593
11.621,61.6117,-0.000593
11.637,61.6291,-0.000678
11.653,61.6451,-0.000678
11.669,61.6626,-0.000678
11.685,61.6800,-0.000678
11.701,61.6971,-0.000678
11.717,61.7148,-0.000678
11.732,61.7325,-0.000678
11.749,61.7509,-0.000678
11.765,61.7690,-0.000678
11.781,61.7872,-0.000678
11.797,61.8073,-0.000678
11.824,61.8378,-0.000678
11.840,61.8571,-0.000678
11.857,61.8775,-0.000678
11.872,61.8961,-0.000678
11.888,61.9155,-0.000584
11.904,61.9353,-0.000584
11.920,61.9560,-0.000584
11.936,61.9762,-0.000584
11.952,61.9972,-0.000584
11.968,62.0171,-0.000584
11.984,62.0396,-0.000584
12.005,62.0689,-0.000584
12.032,62.1020,-0.000584
12.049,62.1252,-0.000584
12.064,62.1459,-0.000584
12.080,62.1684,-0.000584
12.096,62.1899,-0.000584
12.113,62.2139,-0.000584
12.141,62.2544,-0.000442
12.160,62.2811,-0.000442
12.176,62.3055,-0.000442
12.193,62.3303,-0.000442
12.211,62.3561,-0.000442
12.235,62.3930,-0.000442
12.255,62.4230,-0.000442
12.271,62.4470,-0.000442
12.288,62.4731,-0.000442
12.304,62.4976,-0.000442
12.319,62.5217,-0.000442
12.336,62.5471,-0.000442
12.352,62.5728,-0.000442
12.367,62.5977,-0.000442
12.383,62.6232,-0.000433
12.399,62.6494,-0.000433
12.416,62.6769,-0.000433
12.431,62.7019,-0.000433
12.448,62.7287,-0.000433
12.463,62.7551,-0.000433
12.480,62.7825,-0.000433
12.496,62.8099,-0.000433
12.512,62.8376,-0.000433
12.527,62.8634,-0.000433
12.543,62.8913,-0.000433
12.560,62.9212,-0.000433
12.575,62.9470,-0.000433
12.598,62.9884,-0.000433
12.621,63.0288,-0.000433
12.639,63.0618,-0.000499
12.656,63.0923,-0.000499
12.671,63.1199,-0.000499
12.687,63.1488,-0.000499
12.704,63.1800,-0.000499
12.719,63.2100,-0.000499
12.735,63.2389,-0.000499
12.751,63.2693,-0.000499
12.768,63.3006,-0.000499
12.784,63.3310,-0.000499
12.800,63.3613,-0.000499
12.815,63.3911,-0.000499
12.832,63.4256,-0.000499
12.848,63.4546,-0.000499
12.863,63.4860,-0.000499
12.879,63.5170,-0.000499
12.895,63.5487,-0.000537
12.912,63.5825,-0.000537
12.927,63.6146,-0.000537
12.944,63.6486,-0.000537
12.959,63.6791,-0.000537
12.976,63.7134,-0.000537
12.991,63.7445,-0.000537
13.011,63.7861,-0.000537
13.039,63.8466,-0.000537
13.055,63.8794,-0.000537
13.072,63.9167,-0.000537
13.088,63.9497,-0.000537
13.103,63.9811,-0.000537
13.120,64.0163,-0.000537
13.138,64.0551,-0.000537
13.164,64.1080,-0.000659
13.183,64.1460,-0.000659
13.200,64.1818,-0.000659
13.215,64.2120,-0.000659
13.231,64.2433,-0.000659
13.247,64.2764,-0.000659
13.263,64.3074,-0.000659
13.280,64.3401,-0.000659
13.295,64.3703,-0.000659
13.311,64.4020,-0.000659
13.327,64.4344,-0.000659
13.344,64.4650,-0.000659
13.359,64.4936,-0.000659
13.375,64.5260,-0.000659
13.402,64.5753,-0.000659
13.425,64.6196,-0.000659
13.444,64.6539,-0.000687
13.471,64.7035,-0.000687
13.486,64.7320,-0.000687
13.502,64.7591,-0.000687
13.519,64.7903,-0.000687
13.537,64.8213,-0.000687
13.568,64.8767,-0.000687
13.598,64.9302,-0.000687
13.614,64.9570,-0.000687
13.631,64.9852,-0.000687
13.647,65.0126,-0.000687
13.663,65.0390,-0.000687
13.678,65.0651,-0.000687
13.694,65.0915,-0.000687
13.711,65.1184,-0.000687
13.728,65.1463,-0.000687
13.752,65.1863,-0.000687
13.774,65.2221,-0.000687
13.795,65.2534,-0.000687
13.813,65.2833,-0.000687
13.844,65.3315,-0.000687
13.875,65.3786,-0.000687
13.891,65.4018,-0.000866
13.922,65.4489,-0.000866
13.952,65.4929,-0.000866
13.983,65.5370,-0.000866
13.998,65.5594,-0.000866
14.022,65.5930,-0.000866
14.038,65.6161,-0.000866
14.054,65.6380,-0.000866
14.070,65.6592,-0.000866
14.086,65.6817,-0.000866
14.102,65.7035,-0.000866
14.118,65.7246,-0.000866
14.135,65.7471,-0.001054
14.150,65.7676,-0.001054
14.167,65.7886,-0.001054
14.183,65.8098,-0.001054
14.202,65.8357,-0.001054
14.230,65.8688,-0.001054
14.246,65.8891,-0.001054
14.264,65.9124,-0.001054
14.292,65.9454,-0.001054
14.310,65.9668,-0.001054
14.326,65.9854,-0.001054
14.342,66.0042,-0.001054
14.358,66.0224,-0.001054
14.374,66.0414,-0.001130
14.390,66.0600,-0.001130
14.406,66.0768,-0.001130
14.422,66.0951,-0.001130
14.438,66.1127,-0.001130
14.455,66.1313,-0.001130
14.471,66.1483,-0.001130
14.495,66.1741,-0.001130
14.511,66.1904,-0.001130
14.527,66.2064,-0.001130
14.543,66.2236,-0.001130
14.573,66.2534,-0.001130
14.604,66.2845,-0.001130
14.636,66.3146,-0.001130
14.666,66.3427,-0.001205
14.683,66.3575,-0.001205
14.713,66.3848,-0.001205
14.743,66.4113,-0.001205
14.759,66.4246,-0.001205
14.774,66.4376,-0.001205
14.791,66.4509,-0.001205
14.809,66.4659,-0.001205
14.836,66.4874,-0.001205
14.855,66.5017,-0.001205
14.871,66.5140,-0.001205
14.898,66.5349,-0.001318
14.918,66.5495,-0.001318
14.935,66.5619,-0.001318
14.961,66.5807,-0.001318
14.982,66.5945,-0.001318
14.998,66.6055,-0.001318
15.014,66.6158,-0.001318
15.030,66.6260,-0.001318
15.046,66.6366,-0.001318
15.062,66.6468,-0.001318
15.078,66.6565,-0.001318
15.094,66.6657,-0.001318
15.115,66.6788,-0.001318
15.131,66.6873,-0.001318
15.147,66.6966,-0.001421
15.162,66.7050,-0.001421
15.179,66.7139,-0.001421
15.195,66.7224,-0.001421
15.211,66.7308,-0.001421
15.226,66.7383,-0.001421
15.244,66.7469,-0.001421
15.270,66.7591,-0.001421
15.290,66.7684,-0.001421
15.307,66.7756,-0.001421
15.322,66.7823,-0.001421
15.338,66.7889,-0.001421
15.355,66.7954,-0.001421
15.371,66.8020,-0.001421
15.387,66.8080,-0.001450
15.402,66.8137,-0.001450
15.419,66.8194,-0.001450
15.435,66.8251,-0.001450
15.451,66.8303,-0.001450
15.467,66.8354,-0.001450
15.482,66.8401,-0.001450
15.499,66.8452,-0.001450
15.519,66.8509,-0.001450
15.535,66.8551,-0.001450
15.567,66.8630,-0.001450
15.598,66.8700,-0.001450
15.628,66.8760,-0.001450
15.658,66.8814,-0.001468
15.675,66.8842,-0.001468
15.690,66.8865,-0.001468
15.706,66.8886,-0.001468
15.722,66.8907,-0.001468
15.739,66.8925,-0.001468
15.755,66.8941,-0.001468
15.770,66.8955,-0.001468
15.787,66.8968,-0.001468
15.803,66.8979,-0.001468
15.819,66.8986,-0.001468
15.834,66.8992,-0.001468
15.850,66.8997,-0.001468
15.866,66.9000,-0.001468
15.883,66.9001,-0.001525
15.899,66.9001,-0.001525
15.915,66.9001,-0.001525
15.931,66.9001,-0.001525
15.946,66.9001,-0.001525
15.962,66.9001,-0.001525
15.978,66.9001,-0.001525
15.994,66.9001,-0.001525
16.011,66.9001,-0.001525
16.026,66.9001,-0.001525
16.042,66.9001,-0.001525
16.058,66.9001,-0.001525
16.074,66.9001,-0.001525
16.090,66.9001,-0.001525
16.109,66.9001,-0.001525
16.129,66.9001,-0.001525
16.154,66.9001,-0.001525
16.183,66.9001,-0.001563
16.205,66.9001,-0.001563
16.230,66.9001,-0.001563
16.247,66.9001,-0.001563
16.263,66.9001,-0.001563
16.279,66.9001,-0.001563
16.295,66.9001,-0.001563
16.312,66.9001,-0.001563
16.340,66.9001,-0.001563
16.358,66.9001,-0.001563
16.374,66.9001,-0.001563
16.390,66.9001,-0.001563
16.406,66.9001,-0.001553
16.423,66.9001,-0.001553
16.447,66.9001,-0.001553
16.478,66.9001,-0.001553
16.509,66.9001,-0.001553
16.524,66.9001,-0.001553
16.555,66.9001,-0.001553
16.586,66.9001,-0.001553
16.602,66.9001,-0.001553
16.632,66.9001,-0.001497
16.647,66.9001,-0.001497
16.663,66.9001,-0.001497
16.685,66.9001,-0.001497
16.710,66.9001,-0.001497
16.738,66.9001,-0.001497
16.754,66.9001,-0.001497
16.771,66.9001,-0.001497
16.787,66.9001,-0.001497
16.816,66.9001,-0.001497
16.834,66.9001,-0.001497
16.850,66.9001,-0.001497
16.866,66.9001,-0.001497
16.882,66.9001,-0.001497
16.898,66.9001,-0.001487
16.914,66.9001,-0.001487
16.930,66.9001,-0.001487
16.946,66.9001,-0.001487
16.962,66.9001,-0.001487
16.978,66.9001,-0.001487
16.994,66.9001,-0.001487
17.010,66.9001,-0.001487
17.026,66.9001,-0.001487
17.042,66.9001,-0.001487
17.058,66.9001,-0.001487
17.074,66.9001,-0.001487
17.090,66.9001,-0.001487
17.106,66.9001,-0.001487
17.122,66.9001,-0.001487
17.138,66.9001,-0.001563
17.154,66.9001,-0.001563
17.170,66.9001,-0.001563
17.186,66.9001,-0.001563
17.202,66.9001,-0.001563
17.218,66.9001,-0.001563
17.234,66.9001,-0.001563
17.250,66.9001,-0.001563
17.266,66.9001,-0.001563
17.294,66.9001,-0.001563
17.310,66.9001,-0.001563
17.326,66.9001,-0.001563
17.342,66.9001,-0.001563
17.358,66.9001,-0.001563
17.374,66.9001,-0.001563
17.390,66.9001,-0.001487
17.406,66.9001,-0.001487
17.423,66.9001,-0.001487
17.451,66.9001,-0.001487
17.470,66.9001,-0.001487
17.486,66.9001,-0.001487
17.502,66.9001,-0.001487
17.518,66.9001,-0.001487
17.534,66.9001,-0.001487
17.551,66.9001,-0.001487
17.576,66.9001,-0.001487
17.606,66.9001,-0.001487
17.636,66.9001,-0.001487
17.666,66.9001,-0.001487
17.682,66.9001,-0.001487
17.697,66.9001,-0.001487
17.713,66.9001,-0.001487
17.729,66.9001,-0.001487
17.760,66.9001,-0.001487
17.776,66.9001,-0.001487
17.806,66.9001,-0.001487
17.821,66.9001,-0.001487
17.848,66.9001,-0.001487
17.864,66.9001,-0.001487
17.880,66.9001,-0.001572
17.896,66.9001,-0.001572
17.912,66.9001,-0.001572
17.928,66.9001,-0.001572
17.944,66.9001,-0.001572
17.961,66.9001,-0.001572
17.977,66.9001,-0.001572
17.992,66.9001,-0.001572
18.008,66.9001,-0.001572
18.024,66.9001,-0.001572
18.041,66.9001,-0.001572
18.059,66.9001,-0.001572
18.085,66.9001,-0.001572
18.105,66.9001,-0.001572
18.131,66.9001,-0.001534
18.151,66.9001,-0.001534
18.168,66.9001,-0.001534
18.183,66.9001,-0.001534
18.200,66.9001,-0.001534
18.215,66.9001,-0.001534
18.232,66.9001,-0.001534
18.248,66.9001,-0.001534
18.263,66.9001,-0.001534
18.280,66.9001,-0.001534
18.302,66.9001,-0.001534
18.333,66.9001,-0.001534
18.364,66.9001,-0.001534
18.381,66.9001,-0.001534
18.404,66.9001,-0.001544
18.420,66.9001,-0.001544
18.436,66.9001,-0.001544
18.454,66.9001,-0.001544
18.469,66.9001,-0.001544
18.484,66.9001,-0.001544
18.501,66.9001,-0.001544
18.517,66.9001,-0.001544
18.532,66.9001,-0.001544
18.548,66.9001,-0.001544
18.565,66.9001,-0.001544
18.580,66.9001,-0.001544
18.596,66.9001,-0.001544
18.613,66.9001,-0.001544
18.629,66.9001,-0.001534
18.645,66.9001,-0.001534
18.660,66.9001,-0.001534
18.676,66.9001,-0.001534
18.693,66.9001,-0.001534
18.709,66.9001,-0.001534
18.725,66.9001,-0.001534
18.741,66.9001,-0.001534
18.757,66.9001,-0.001534
18.773,66.9001,-0.001534
18.789,66.9001,-0.001534
18.805,66.9001,-0.001534
18.821,66.9001,-0.001534
18.837,66.9001,-0.001534
18.853,66.9001,-0.001534
18.868,66.9001,-0.001534
18.884,66.9001,-0.001534
18.900,66.9001,-0.001534
18.916,66.9001,-0.001534
18.932,66.9001,-0.001478
18.948,66.9001,-0.001478
18.964,66.9001,-0.001478
18.981,66.9001,-0.001478
18.999,66.9001,-0.001478
19.016,66.9001,-0.001478
19.046,66.9001,-0.001478
19.062,66.9001,-0.001478
19.078,66.9001,-0.001478
19.094,66.9001,-0.001478
19.130,66.9001,-0.001478
19.155,66.9001,-0.001468
19.173,66.9001,-0.001468
19.188,66.9001,-0.001468
19.204,66.9001,-0.001468
19.220,66.9001,-0.001468
19.237,66.9001,-0.001468
19.253,66.9001,-0.001468
19.268,66.9001,-0.001468
19.285,66.9001,-0.001468
19.301,66.9001,-0.001468
19.316,66.9001,-0.001468
19.333,66.9001,-0.001468
19.348,66.9001,-0.001468
19.365,66.9001,-0.001468
19.380,66.9001,-0.001516
19.396,66.9001,-0.001516
19.412,66.9001,-0.001516
19.428,66.9001,-0.001516
19.444,66.9001,-0.001516
19.475,66.9001,-0.001516
19.490,66.9001,-0.001516
19.506,66.9001,-0.001516
19.522,66.9001,-0.001516
19.538,66.9001,-0.001516
19.554,66.9001,-0.001516
19.570,66.9001,-0.001516
19.586,66.9001,-0.001516
19.604,66.9001,-0.001516
19.632,66.9001,-0.001525
19.651,66.9001,-0.001525
19.672,66.9001,-0.001525
19.695,66.9001,-0.001525
19.714,66.9001,-0.001525
19.730,66.9001,-0.001525
19.746,66.9001,-0.001525
19.762,66.9001,-0.001525
19.778,66.9001,-0.001525
19.794,66.9001,-0.001525
19.810,66.9001,-0.001525
19.826,66.9001,-0.001525
19.842,66.9001,-0.001525
19.858,66.9001,-0.001525
19.874,66.9001,-0.001534
19.890,66.9001,-0.001534
19.906,66.9001,-0.001534
19.922,66.9001,-0.001534
19.938,66.9001,-0.001534
19.954,66.9001,-0.001534
19.970,66.9001,-0.001534
19.986,66.9001,-0.001534
20.002,66.9001,-0.001534
20.026,66.9001,-0.001534
20.047,66.9001,-0.001534
20.077,66.9001,-0.001534
20.108,66.9001,-0.001534
20.138,66.9001,-0.001563
20.154,66.9001,-0.001563
20.170,66.9001,-0.001563
20.186,66.9001,-0.001563
20.202,66.9001,-0.001563
20.219,66.9001,-0.001563
20.238,66.9001,-0.001563
20.263,66.9001,-0.001563
20.282,66.9001,-0.001563
20.298,66.9001,-0.001563
20.314,66.9001,-0.001563
20.330,66.9001,-0.001563
20.346,66.9001,-0.001563
20.362,66.9001,-0.001563
20.378,66.9001,-0.001628
20.394,66.9001,-0.001628
20.411,66.9001,-0.001628
20.434,66.9001,-0.001628
20.450,66.9001,-0.001628
20.465,66.9001,-0.001628
20.481,66.9001,-0.001628
20.496,66.9001,-0.001628
20.512,66.9001,-0.001628
20.542,66.9001,-0.001628
20.558,66.9001,-0.001628
20.573,66.9001,-0.001628
20.605,66.8999,-0.001628
20.634,66.8990,-0.001610
20.653,66.8980,-0.001610
20.681,66.8961,-0.001610
20.698,66.8948,-0.001610
20.715,66.8932,-0.001610
20.731,66.8914,-0.001610
20.747,66.8894,-0.001610
20.763,66.8873,-0.001610
20.779,66.8850,-0.001610
20.807,66.8803,-0.001610
20.826,66.8770,-0.001610
20.842,66.8738,-0.001610
20.858,66.8707,-0.001610
20.874,66.8672,-0.001167
20.890,66.8635,-0.001167
20.907,66.8595,-0.001167
20.930,66.8533,-0.001167
20.961,66.8449,-0.001167
20.976,66.8403,-0.001167
21.007,66.8306,-0.001167
21.037,66.8206,-0.001167
21.067,66.8098,-0.001167
21.083,66.8039,-0.001167
21.099,66.7975,-0.001167
21.115,66.7913,-0.001167
21.145,66.7786,0.000132
21.161,66.7716,0.000132
21.179,66.7638,0.000132
21.195,66.7566,0.000132
21.223,66.7430,0.000132
21.242,66.7334,0.000132
21.261,66.7237,0.000132
21.278,66.7152,0.000132
21.301,66.7028,0.000132
21.322,66.6908,0.000132
21.338,66.6818,0.000132
21.354,66.6729,0.000132
21.370,66.6633,0.000132
21.386,66.6537,0.000132
21.402,66.6437,-0.000169
21.417,66.6341,-0.000169
21.441,66.6183,-0.000169
21.471,66.5990,-0.000169
21.501,66.5776,-0.000169
21.518,66.5664,-0.000169
21.549,66.5440,-0.000169
21.565,66.5322,-0.000169
21.588,66.5145,-0.000169
21.605,66.5017,-0.000169
21.626,66.4854,-0.000169
21.656,66.4608,-0.001365
21.686,66.4359,-0.001365
21.702,66.4220,-0.001365
21.733,66.3957,-0.001365
21.749,66.3818,-0.001365
21.779,66.3545,-0.001365
21.810,66.3264,-0.001365
21.827,66.3105,-0.001365
21.843,66.2956,-0.001365
21.859,66.2800,-0.001365
21.875,66.2649,-0.001280
21.891,66.2485,-0.001280
21.907,66.2326,-0.001280
21.922,66.2172,-0.001280
21.939,66.2000,-0.001280
21.954,66.1844,-0.001280
21.970,66.1676,-0.001280
21.987,66.1500,-0.001280
22.003,66.1324,-0.001280
22.018,66.1160,-0.001280
22.034,66.0982,-0.001280
22.050,66.0806,-0.001280
22.066,66.0627,-0.001280
22.082,66.0450,-0.001280
22.098,66.0260,-0.001280
22.114,66.0078,-0.001280
22.130,65.9893,-0.001280
22.146,65.9704,-0.001205
22.163,65.9508,-0.001205
22.179,65.9310,-0.001205
22.195,65.9121,-0.001205
22.210,65.8930,-0.001205
22.226,65.8731,-0.001205
22.242,65.8531,-0.001205
22.258,65.8328,-0.001205
22.274,65.8120,-0.001205
22.290,65.7913,-0.001205
22.307,65.7696,-0.001205
22.323,65.7492,-0.001205
22.338,65.7282,-0.001205
22.354,65.7067,-0.001205
22.370,65.6852,-0.001205
22.386,65.6632,-0.001167
22.402,65.6421,-0.001167
22.418,65.6191,-0.001167
22.435,65.5965,-0.001167
22.450,65.5750,-0.001167
22.467,65.5506,-0.001167
22.484,65.5272,-0.001167
22.511,65.4875,-0.001167
22.530,65.4592,-0.001167
22.552,65.4260,-0.001167
22.572,65.3953,-0.001167
22.603,65.3477,-0.001167
22.634,65.3014,-0.001167
22.650,65.2770,-0.001167
22.670,65.2445,-0.001064
22.686,65.2197,-0.001064
22.702,65.1939,-0.001064
22.718,65.1669,-0.001064
22.734,65.1410,-0.001064
22.750,65.1153,-0.001064
22.766,65.0892,-0.001064
22.782,65.0624,-0.001064
22.798,65.0355,-0.001064
22.814,65.0087,-0.001064
22.830,64.9822,-0.001064
22.846,64.9548,-0.001064
22.862,64.9271,-0.001064
22.878,64.8985,-0.000904
22.894,64.8710,-0.000904
22.910,64.8429,-0.000904
22.926,64.8150,-0.000904
22.943,64.7854,-0.000904
22.958,64.7581,-0.000904
22.975,64.7265,-0.000904
22.990,64.6989,-0.000904
23.006,64.6698,-0.000904
23.022,64.6408,-0.000904
23.038,64.6116,-0.000904
23.054,64.5806,-0.000904
23.070,64.5504,-0.000904
23.086,64.5216,-0.000904
23.103,64.4892,-0.000904
23.118,64.4591,-0.000904
23.134,64.4294,-0.000762
23.151,64.3961,-0.000762
23.166,64.3656,-0.000762
23.183,64.3342,-0.000762
23.207,64.2844,-0.000762
23.227,64.2465,-0.000762
23.243,64.2129,-0.000762
23.260,64.1785,-0.000762
23.284,64.1289,-0.000762
23.300,64.0982,-0.000762
23.331,64.0333,-0.000762
23.362,63.9667,-0.000762
23.393,63.9018,-0.000650
23.424,63.8357,-0.000650
23.455,63.7712,-0.000650
23.485,63.7079,-0.000650
23.502,63.6731,-0.000650
23.532,63.6106,-0.000650
23.548,63.5783,-0.000650
23.563,63.5489,-0.000650
23.579,63.5169,-0.000650
23.596,63.4792,-0.000650
23.624,63.4265,-0.000593
23.643,63.3890,-0.000593
23.659,63.3575,-0.000593
23.676,63.3245,-0.000593
23.691,63.2967,-0.000593
23.707,63.2652,-0.000593
23.723,63.2338,-0.000593
23.739,63.2040,-0.000593
23.755,63.1743,-0.000593
23.776,63.1348,-0.000593
23.792,63.1056,-0.000593
23.807,63.0762,-0.000593
23.824,63.0458,-0.000593
23.841,63.0166,-0.000593
23.870,62.9634,-0.000574
23.888,62.9321,-0.000574
23.904,62.9033,-0.000574
23.920,62.8744,-0.000574
23.935,62.8481,-0.000574
23.952,62.8195,-0.000574
23.967,62.7923,-0.000574
23.983,62.7655,-0.000574
24.000,62.7380,-0.000574
24.016,62.7111,-0.000574
24.032,62.6833,-0.000574
24.047,62.6579,-0.000574
24.064,62.6308,-0.000574
24.080,62.6050,-0.000574
24.096,62.5794,-0.000574
24.112,62.5525,-0.000574
24.129,62.5258,-0.000499
24.144,62.5005,-0.000499
24.159,62.4776,-0.000499
24.176,62.4513,-0.000499
24.191,62.4279,-0.000499
24.210,62.3972,-0.000499
24.238,62.3556,-0.000499
24.256,62.3298,-0.000499
24.272,62.3050,-0.000499
24.288,62.2830,-0.000499
24.303,62.2595,-0.000499
24.329,62.2223,-0.000499
24.351,62.1897,-0.000499
24.377,62.1534,-0.000442
24.393,62.1321,-0.000442
24.423,62.0903,-0.000442
24.440,62.0674,-0.000442
24.455,62.0451,-0.000442
24.471,62.0250,-0.000442
24.487,62.0035,-0.000442
24.503,61.9824,-0.000442
24.525,61.9533,-0.000442
24.540,61.9341,-0.000442
24.561,61.9082,-0.000442
24.592,61.8690,-0.000442
24.622,61.8320,-0.000442
24.653,61.7946,-0.000414
24.684,61.7587,-0.000414
24.715,61.7216,-0.000414
24.746,61.6873,-0.000414
24.762,61.6694,-0.000414
24.793,61.6354,-0.000414
24.822,61.6031,-0.000414
24.843,61.5816,-0.000414
24.870,61.5527,-0.000414
24.895,61.5282,-0.000348
24.911,61.5118,-0.000348
24.926,61.4963,-0.000348
24.942,61.4804,-0.000348
24.959,61.4648,-0.000348
24.974,61.4500,-0.000348
24.990,61.4346,-0.000348
25.006,61.4199,-0.000348
25.022,61.4051,-0.000348
25.038,61.3900,-0.000348
25.054,61.3755,-0.000348
25.070,61.3617,-0.000348
25.087,61.3476,-0.000348
25.103,61.3339,-0.000348
25.118,61.3208,-0.000348
25.137,61.3049,-0.000348
25.164,61.2823,-0.000358
25.182,61.2678,-0.000358
25.199,61.2544,-0.000358
25.215,61.2428,-0.000358
25.231,61.2304,-0.000358
25.246,61.2187,-0.000358
25.266,61.2043,-0.000358
25.289,61.1868,-0.000358
25.310,61.1726,-0.000358
25.327,61.1608,-0.000358
25.343,61.1499,-0.000358
25.366,61.1343,-0.000358
25.402,61.1109,-0.000358
25.422,61.0992,-0.000414
25.438,61.0892,-0.000414
25.454,61.0796,-0.000414
25.470,61.0703,-0.000414
25.486,61.0613,-0.000414
25.502,61.0523,-0.000414
25.518,61.0436,-0.000414
25.534,61.0349,-0.000414
25.550,61.0266,-0.000414
25.566,61.0185,-0.000414
25.582,61.0102,-0.000414
25.598,61.0028,-0.000414
25.614,60.9950,-0.000414
25.638,60.9838,-0.000414
25.656,60.9760,-0.000414
25.676,60.9677,-0.000395
25.694,60.9601,-0.000395
25.710,60.9537,-0.000395
25.726,60.9473,-0.000395
25.742,60.9414,-0.000395
25.760,60.9349,-0.000395
25.785,60.9261,-0.000395
25.806,60.9191,-0.000395
25.822,60.9139,-0.000395
25.838,60.9090,-0.000395
25.854,60.9044,-0.000395
25.870,60.9000,-0.000395
25.886,60.8955,-0.000395
25.902,60.8915,-0.000405
25.918,60.8877,-0.000405
25.934,60.8840,-0.000405
25.950,60.8804,-0.000405
25.966,60.8772,-0.000405
25.982,60.8739,-0.000405
25.998,60.8710,-0.000405
26.014,60.8683,-0.000405
26.030,60.8656,-0.000405
26.046,60.8634,-0.000405
26.062,60.8613,-0.000405
26.078,60.8593,-0.000405
26.094,60.8574,-0.000405
26.111,60.8557,-0.000405
26.126,60.8545,-0.000405
26.142,60.8532,-0.000414
26.158,60.8522,-0.000414
26.174,60.8514,-0.000414
26.190,60.8509,-0.000414
26.206,60.8504,-0.000414
26.222,60.8501,-0.000414
26.238,60.8501,-0.000414
26.254,60.8501,-0.000414
26.274,60.8501,-0.000414
26.297,60.8501,-0.000414
26.312,60.8501,-0.000414
26.334,60.8501,-0.000414
26.350,60.8502,-0.000414
26.367,60.8505,-0.000414
26.382,60.8509,-0.000377
26.398,60.8515,-0.000377
26.414,60.8523,-0.000377
26.430,60.8535,-0.000377
26.446,60.8546,-0.000377
26.462,60.8561,-0.000377
26.478,60.8576,-0.000377
26.494,60.8594,-0.000377
26.510,60.8614,-0.000377
26.540,60.8657,-0.000377
26.556,60.8683,-0.000377
26.572,60.8710,-0.000377
26.588,60.8739,-0.000377
26.603,60.8770,-0.000377
26.621,60.8805,-0.000377
26.651,60.8874,-0.000471
26.675,60.8934,-0.000471
26.691,60.8976,-0.000471
26.713,60.9037,-0.000471
26.732,60.9093,-0.000471
26.748,60.9139,-0.000471
26.764,60.9188,-0.000471
26.780,60.9243,-0.000471
26.796,60.9299,-0.000471
26.812,60.9354,-0.000471
26.828,60.9411,-0.000471
26.844,60.9471,-0.000471
26.859,60.9534,-0.000471
26.876,60.9598,-0.000555
26.892,60.9666,-0.000555
26.908,60.9734,-0.000555
26.924,60.9805,-0.000555
26.940,60.9877,-0.000555
26.960,60.9967,-0.000555
26.976,61.0048,-0.000555
27.007,61.0200,-0.000555
27.023,61.0282,-0.000555
27.054,61.0446,-0.000555
27.069,61.0533,-0.000555
27.096,61.0683,-0.000555
27.117,61.0804,-0.000555
27.147,61.0985,-0.000537
27.178,61.1180,-0.000537
27.208,61.1376,-0.000537
27.225,61.1491,-0.000537
27.241,61.1592,-0.000537
27.256,61.1697,-0.000537
27.271,61.1804,-0.000537
27.288,61.1920,-0.000537
27.303,61.2035,-0.000537
27.319,61.2152,-0.000537
27.335,61.2273,-0.000537
27.352,61.2403,-0.000537
27.368,61.2521,-0.000537
27.383,61.2645,-0.000574
27.399,61.2771,-0.000574
27.417,61.2919,-0.000574
27.439,61.3101,-0.000574
27.455,61.3230,-0.000574
27.471,61.3373,-0.000574
27.487,61.3505,-0.000574
27.517,61.3771,-0.000574
27.535,61.3926,-0.000574
27.564,61.4198,-0.000574
27.580,61.4348,-0.000574
27.610,61.4639,-0.000574
27.641,61.4938,-0.000659
27.657,61.5097,-0.000659
27.687,61.5403,-0.000659
27.703,61.5566,-0.000659
27.720,61.5744,-0.000659
27.736,61.5912,-0.000659
27.752,61.6074,-0.000659
27.768,61.6255,-0.000659
27.784,61.6434,-0.000659
27.811,61.6733,-0.000659
27.831,61.6955,-0.000659
27.848,61.7142,-0.000659
27.864,61.7319,-0.000659
27.879,61.7500,-0.000678
27.895,61.7689,-0.000678
27.912,61.7885,-0.000678
27.928,61.8075,-0.000678
27.943,61.8264,-0.000678
27.959,61.8459,-0.000678
27.976,61.8662,-0.000678
27.991,61.8856,-0.000678
28.008,61.9062,-0.000678
28.023,61.9259,-0.000678
28.039,61.9465,-0.000678
28.056,61.9678,-0.000678
28.072,61.9898,-0.000678
28.089,62.0120,-0.000678
28.120,62.0531,-0.000678
28.146,62.0892,-0.000527
28.163,62.1109,-0.000527
28.178,62.1328,-0.000527
28.194,62.1551,-0.000527
28.210,62.1777,-0.000527
28.227,62.2014,-0.000527
28.242,62.2233,-0.000527
28.258,62.2467,-0.000527
28.275,62.2720,-0.000527
28.306,62.3166,-0.000527
28.323,62.3432,-0.000527
28.346,62.3793,-0.000527
28.367,62.4096,-0.000405
28.386,62.4390,-0.000405
28.402,62.4638,-0.000405
28.418,62.4890,-0.000405
28.434,62.5141,-0.000405
28.451,62.5413,-0.000405
28.467,62.5678,-0.000405
28.484,62.5945,-0.000405
28.504,62.6280,-0.000405
28.520,62.6539,-0.000405
28.536,62.6805,-0.000405
28.566,62.7312,-0.000405
28.597,62.7835,-0.000405
28.613,62.8102,-0.000405
28.628,62.8366,-0.000442
28.644,62.8641,-0.000442
28.661,62.8939,-0.000442
28.691,62.9465,-0.000442
28.709,62.9802,-0.000442
28.726,63.0122,-0.000442
28.753,63.0591,-0.000442
28.770,63.0908,-0.000442
28.786,63.1202,-0.000442
28.802,63.1509,-0.000442
28.818,63.1794,-0.000442
28.834,63.2109,-0.000442
28.851,63.2415,-0.000442
28.876,63.2908,-0.000555
28.902,63.3408,-0.000555
28.922,63.3783,-0.000555
28.953,63.4400,-0.000555
28.984,63.5017,-0.000555
28.999,63.5337,-0.000555
29.030,63.5941,-0.000555
29.046,63.6264,-0.000555
29.061,63.6595,-0.000555
29.093,63.7245,-0.000555
29.123,63.7874,-0.000678
29.138,63.8207,-0.000678
29.155,63.8546,-0.000678
29.184,63.9172,-0.000678
29.202,63.9544,-0.000678
29.218,63.9877,-0.000678
29.241,64.0370,-0.000678
29.257,64.0686,-0.000678
29.273,64.1011,-0.000678
29.289,64.1331,-0.000678
29.305,64.1659,-0.000678
29.321,64.1976,-0.000678
29.338,64.2326,-0.000678
29.353,64.2656,-0.000678
29.369,64.2950,-0.000678
29.385,64.3244,-0.000706
29.401,64.3565,-0.000706
29.417,64.3876,-0.000706
29.434,64.4190,-0.000706
29.450,64.4495,-0.000706
29.465,64.4792,-0.000706
29.481,64.5104,-0.000706
29.497,64.5388,-0.000706
29.513,64.5696,-0.000706
29.529,64.5985,-0.000706
29.545,64.6290,-0.000706
29.561,64.6578,-0.000706
29.577,64.6857,-0.000706
29.593,64.7154,-0.000706
29.609,64.7448,-0.000706
29.625,64.7724,-0.000706
29.641,64.8000,-0.000791
29.657,64.8289,-0.000791
29.673,64.8564,-0.000791
29.689,64.8835,-0.000791
29.705,64.9119,-0.000791
29.721,64.9392,-0.000791
29.738,64.9682,-0.000791
29.763,65.0092,-0.000791
29.793,65.0612,-0.000791
29.824,65.1108,-0.000791
29.855,65.1603,-0.000791
29.885,65.2085,-0.000922
29.916,65.2579,-0.000922
29.947,65.3037,-0.000922
29.962,65.3271,-0.000922
29.977,65.3501,-0.000922
29.993,65.3735,-0.000922
30.009,65.3973,-0.000922
30.032,65.4324,-0.000922
30.054,65.4652,-0.000922
30.073,65.4914,-0.000922
30.088,65.5133,-0.000922
30.104,65.5358,-0.000922
30.121,65.5592,-0.000960
30.137,65.5816,-0.000960
30.152,65.6028,-0.000960
30.168,65.6245,-0.000960
30.185,65.6466,-0.000960
30.201,65.6677,-0.000960
30.217,65.6905,-0.000960
30.238,65.7182,-0.000960
30.269,65.7574,-0.000960
30.286,65.7793,-0.000960
30.316,65.8177,-0.000960
30.331,65.8367,-0.000960
30.348,65.8572,-0.000960
30.379,65.8953,-0.001073
30.410,65.9311,-0.001073
30.425,65.9493,-0.001073
30.440,65.9670,-0.001073
30.457,65.9864,-0.001073
30.473,66.0039,-0.001073
30.488,66.0216,-0.001073
30.504,66.0393,-0.001073
30.521,66.0584,-0.001073
30.540,66.0793,-0.001073
30.564,66.1040,-0.001073
30.585,66.1261,-0.001073
30.600,66.1422,-0.001073
30.616,66.1586,-0.001073
30.632,66.1748,-0.001205
30.648,66.1911,-0.001205
30.665,66.2072,-0.001205
30.680,66.2227,-0.001205
30.696,66.2382,-0.001205
30.712,66.2533,-0.001205
30.728,66.2686,-0.001205
30.745,66.2847,-0.001205
30.761,66.2987,-0.001205
30.776,66.3125,-0.001205
30.792,66.3270,-0.001205
30.809,66.3422,-0.001205
30.825,66.3553,-0.001205
30.841,66.3693,-0.001205
30.865,66.3897,-0.001205
30.882,66.4036,-0.001205
30.898,66.4164,-0.001243
30.914,66.4302,-0.001243
30.929,66.4417,-0.001243
30.946,66.4546,-0.001243
30.961,66.4669,-0.001243
30.981,66.4820,-0.001243
31.008,66.5016,-0.001243
31.025,66.5140,-0.001243
31.042,66.5257,-0.001243
31.058,66.5366,-0.001243
31.074,66.5476,-0.001243
31.102,66.5664,-0.001243
31.121,66.5788,-0.001243
31.137,66.5887,-0.001327
31.153,66.5987,-0.001327
31.169,66.6089,-0.001327
31.186,66.6187,-0.001327
31.210,66.6327,-0.001327
31.240,66.6502,-0.001327
31.271,66.6663,-0.001327
31.302,66.6823,-0.001327
31.332,66.6972,-0.001327
31.348,66.7045,-0.001327
31.363,66.7115,-0.001327
31.379,66.7190,-0.001374
31.406,66.7308,-0.001374
31.422,66.7375,-0.001374
31.438,66.7441,-0.001374
31.455,66.7507,-0.001374
31.470,66.7562,-0.001374
31.487,66.7624,-0.001374
31.502,66.7679,-0.001374
31.518,66.7737,-0.001374
31.534,66.7791,-0.001374
31.550,66.7841,-0.001374
31.566,66.7892,-0.001374
31.582,66.7937,-0.001374
31.599,66.7987,-0.001374
31.614,66.8029,-0.001374
31.630,66.8068,-0.001393
31.646,66.8108,-0.001393
31.662,66.8148,-0.001393
31.678,66.8182,-0.001393
31.694,66.8217,-0.001393
31.710,66.8249,-0.001393
31.726,66.8280,-0.001393
31.742,66.8308,-0.001393
31.758,66.8334,-0.001393
31.775,66.8361,-0.001393
31.795,66.8388,-0.001393
31.810,66.8408,-0.001393
31.842,66.8442,-0.001393
31.872,66.8466,-0.001506
31.888,66.8476,-0.001506
31.903,66.8485,-0.001506
31.918,66.8493,-0.001506
31.934,66.8497,-0.001506
31.960,66.8501,-0.001506
31.976,66.8501,-0.001506
31.992,66.8501,-0.001506
32.008,66.8501,-0.001506
32.024,66.8501,-0.001506
32.040,66.8501,-0.001506
32.056,66.8501,-0.001506
32.072,66.8501,-0.001506
32.090,66.8501,-0.001506
32.118,66.8501,-0.001563
32.136,66.8501,-0.001563
32.153,66.8501,-0.001563
32.179,66.8501,-0.001563
32.200,66.8501,-0.001563
32.216,66.8501,-0.001563
32.232,66.8501,-0.001563
32.248,66.8501,-0.001563
32.264,66.8501,-0.001563
32.280,66.8501,-0.001563
32.296,66.8501,-0.001563
32.312,66.8501,-0.001563
32.328,66.8501,-0.001563
32.344,66.8501,-0.001563
32.360,66.8501,-0.001563
32.376,66.8501,-0.001553
32.392,66.8501,-0.001553
32.408,66.8501,-0.001553
32.424,66.8501,-0.001553
32.440,66.8501,-0.001553
32.456,66.8501,-0.001553
32.472,66.8501,-0.001553
32.496,66.8501,-0.001553
32.513,66.8501,-0.001553
32.529,66.8501,-0.001553
32.546,66.8501,-0.001553
32.562,66.8501,-0.001553
32.592,66.8501,-0.001553
32.609,66.8501,-0.001553
32.626,66.8501,-0.001553
32.655,66.8501,-0.001553
32.672,66.8501,-0.001553
32.689,66.8501,-0.001553
32.704,66.8501,-0.001553
32.720,66.8501,-0.001553
32.737,66.8501,-0.001553
32.753,66.8501,-0.001553
32.768,66.8501,-0.001553
32.784,66.8501,-0.001553
32.801,66.8501,-0.001553
32.816,66.8501,-0.001553
32.833,66.8501,-0.001553
32.849,66.8501,-0.001553
32.864,66.8501,-0.001553
32.880,66.8501,-0.001553
32.896,66.8501,-0.001591
32.913,66.8501,-0.001591
32.928,66.8501,-0.001591
32.945,66.8501,-0.001591
32.960,66.8501,-0.001591
32.977,66.8501,-0.001591
32.993,66.8501,-0.001591
33.010,66.8501,-0.001591
33.026,66.8501,-0.001591
33.055,66.8501,-0.001591
33.070,66.8501,-0.001591
33.085,66.8501,-0.001591
33.101,66.8501,-0.001591
33.117,66.8501,-0.001591
33.134,66.8501,-0.001591
33.149,66.8501,-0.001553
33.165,66.8501,-0.001553
33.181,66.8501,-0.001553
33.197,66.8501,-0.001553
33.214,66.8501,-0.001553
33.230,66.8501,-0.001553
33.245,66.8501,-0.001553
33.262,66.8501,-0.001553
33.277,66.8501,-0.001553
33.293,66.8501,-0.001553
33.310,66.8501,-0.001553
33.326,66.8501,-0.001553
33.352,66.8501,-0.001553
33.373,66.8501,-0.001553
33.390,66.8501,-0.001553
33.406,66.8501,-0.001506
33.421,66.8501,-0.001506
33.437,66.8501,-0.001506
33.453,66.8501,-0.001506
33.469,66.8501,-0.001506
33.485,66.8501,-0.001506
33.502,66.8501,-0.001506
33.517,66.8501,-0.001506
33.533,66.8501,-0.001506
33.549,66.8501,-0.001506
33.576,66.8501,-0.001506
33.592,66.8501,-0.001506
33.608,66.8501,-0.001506
33.625,66.8501,-0.001506
33.640,66.8501,-0.001506
33.656,66.8501,-0.001525
33.673,66.8501,-0.001525
33.693,66.8501,-0.001525
33.723,66.8501,-0.001525
33.754,66.8501,-0.001525
33.770,66.8501,-0.001525
33.786,66.8501,-0.001525
33.801,66.8501,-0.001525
33.816,66.8501,-0.001525
33.832,66.8501,-0.001525
33.848,66.8501,-0.001525
33.866,66.8501,-0.001525
33.895,66.8501,-0.001581
33.912,66.8501,-0.001581
33.929,66.8501,-0.001581
33.944,66.8501,-0.001581
33.960,66.8501,-0.001581
33.976,66.8501,-0.001581
33.992,66.8501,-0.001581
34.008,66.8501,-0.001581
34.024,66.8501,-0.001581
34.040,66.8501,-0.001581
34.056,66.8501,-0.001581
34.072,66.8501,-0.001581
34.088,66.8501,-0.001581
34.104,66.8501,-0.001581
34.120,66.8501,-0.001581
34.141,66.8501,-0.001581
34.157,66.8501,-0.001581
34.187,66.8501,-0.001581
34.218,66.8501,-0.001581
34.234,66.8501,-0.001581
34.265,66.8501,-0.001581
34.284,66.8501,-0.001581
34.300,66.8501,-0.001581
34.327,66.8501,-0.001581
34.344,66.8501,-0.001581
34.360,66.8501,-0.001581
34.376,66.8501,-0.001525
34.392,66.8501,-0.001525
34.409,66.8501,-0.001525
34.437,66.8501,-0.001525
34.456,66.8501,-0.001525
34.472,66.8501,-0.001525
34.488,66.8501,-0.001525
34.504,66.8501,-0.001525
34.520,66.8501,-0.001525
34.536,66.8501,-0.001525
34.553,66.8501,-0.001525
34.578,66.8501,-0.001525
34.593,66.8501,-0.001525
34.624,66.8501,-0.001525
34.655,66.8501,-0.001544
34.685,66.8501,-0.001544
34.717,66.8501,-0.001544
34.747,66.8501,-0.001544
34.764,66.8501,-0.001544
34.794,66.8501,-0.001544
34.825,66.8501,-0.001544
34.842,66.8501,-0.001544
34.872,66.8501,-0.001600
34.888,66.8501,-0.001600
34.904,66.8501,-0.001600
34.920,66.8501,-0.001600
34.936,66.8501,-0.001600
34.952,66.8501,-0.001600
34.969,66.8501,-0.001600
34.984,66.8501,-0.001600
35.000,66.8501,-0.001600
35.016,66.8501,-0.001600
35.032,66.8501,-0.001600
35.048,66.8501,-0.001600
35.063,66.8501,-0.001600
35.080,66.8501,-0.001600
35.096,66.8501,-0.001600
35.111,66.8501,-0.001600
35.128,66.8501,-0.001600
35.144,66.8501,-0.001600
35.167,66.8501,-0.001600
35.188,66.8501,-0.001619
35.204,66.8501,-0.001619
35.220,66.8501,-0.001619
35.236,66.8501,-0.001619
35.252,66.8501,-0.001619
35.267,66.8501,-0.001619
35.284,66.8501,-0.001619
35.300,66.8501,-0.001619
35.316,66.8501,-0.001619
35.331,66.8501,-0.001619
35.348,66.8501,-0.001619
35.364,66.8501,-0.001619
35.379,66.8501,-0.001619
35.396,66.8501,-0.001572
35.412,66.8501,-0.001572
35.429,66.8501,-0.001572
35.444,66.8501,-0.001572
35.459,66.8501,-0.001572
35.476,66.8501,-0.001572
35.491,66.8501,-0.001572
35.507,66.8501,-0.001572
35.523,66.8501,-0.001572
35.539,66.8501,-0.001572
35.556,66.8501,-0.001572
35.573,66.8501,-0.001572
35.588,66.8501,-0.001572
35.603,66.8501,-0.001572
35.619,66.8501,-0.001572
35.636,66.8501,-0.001572
35.651,66.8501,-0.001544
35.668,66.8501,-0.001544
35.684,66.8501,-0.001544
35.700,66.8501,-0.001544
35.715,66.8501,-0.001544
35.739,66.8501,-0.001544
35.754,66.8501,-0.001544
35.771,66.8501,-0.001544
35.786,66.8501,-0.001544
35.810,66.8501,-0.001544
35.833,66.8501,-0.001544
35.850,66.8501,-0.001544
35.867,66.8501,-0.001544
35.895,66.8501,-0.001544
35.915,66.8501,-0.001544
35.931,66.8501,-0.001544
35.947,66.8501,-0.001544
35.962,66.8501,-0.001544
35.979,66.8501,-0.001544
35.994,66.8501,-0.001544
36.010,66.8501,-0.001544
36.027,66.8501,-0.001544
36.043,66.8501,-0.001544
36.059,66.8501,-0.001544
36.074,66.8501,-0.001544
36.090,66.8501,-0.001544
36.106,66.8501,-0.001544
36.123,66.8501,-0.001544
36.138,66.8501,-0.001572
36.154,66.8501,-0.001572
36.170,66.8501,-0.001572
36.186,66.8501,-0.001572
36.203,66.8501,-0.001572
36.219,66.8501,-0.001572
36.242,66.8501,-0.001572
36.265,66.8501,-0.001572
36.283,66.8501,-0.001572
36.299,66.8501,-0.001572
36.314,66.8501,-0.001572
36.330,66.8501,-0.001572
36.346,66.8501,-0.001572
36.363,66.8501,-0.001572
36.378,66.8501,-0.001572
36.394,66.8501,-0.001628
36.410,66.8501,-0.001628
36.426,66.8501,-0.001628
36.443,66.8501,-0.001628
36.458,66.8501,-0.001628
36.474,66.8501,-0.001628
36.490,66.8501,-0.001628
36.507,66.8501,-0.001628
36.522,66.8501,-0.001628
36.538,66.8501,-0.001628
36.554,66.8501,-0.001628
36.570,66.8501,-0.001628
36.586,66.8501,-0.001628
36.602,66.8501,-0.001628
36.619,66.8501,-0.001628
36.635,66.8501,-0.001619
36.650,66.8501,-0.001619
36.667,66.8500,-0.001619
36.683,66.8496,-0.001619
36.699,66.8491,-0.001619
36.714,66.8484,-0.001619
36.730,66.8474,-0.001619
36.746,66.8463,-0.001619
36.762,66.8450,-0.001619
36.793,66.8418,-0.001619
36.809,66.8401,-0.001619
36.825,66.8380,-0.001619
36.841,66.8357,-0.001619
36.858,66.8331,-0.001619
36.874,66.8305,-0.001421
36.889,66.8278,-0.001421
36.905,66.8247,-0.001421
36.921,66.8215,-0.001421
36.937,66.8180,-0.001421
36.953,66.8143,-0.001421
36.969,66.8106,-0.001421
36.992,66.8046,-0.001421
37.023,66.7963,-0.001421
37.054,66.7870,-0.001421
37.070,66.7819,-0.001421
37.100,66.7719,-0.001421
37.122,66.7643,-0.001421
37.146,66.7555,-0.000311
37.168,66.7466,-0.000311
37.192,66.7370,-0.000311
37.210,66.7296,-0.000311
37.230,66.7206,-0.000311
37.253,66.7105,-0.000311
37.273,66.7012,-0.000311
37.289,66.6935,-0.000311
37.305,66.6857,-0.000311
37.321,66.6775,-0.000311
37.343,66.6661,-0.000311
37.359,66.6578,-0.000311
37.375,66.6486,0.000000
37.390,66.6401,0.000000
37.408,66.6300,0.000000
37.438,66.6124,0.000000
37.455,66.6022,0.000000
37.471,66.5922,0.000000
37.487,66.5824,0.000000
37.503,66.5722,0.000000
37.519,66.5615,0.000000
37.535,66.5507,0.000000
37.551,66.5402,0.000000
37.567,66.5291,0.000000
37.583,66.5177,0.000000
37.602,66.5042,0.000000
37.624,66.4877,0.000000
37.655,66.4645,-0.000970
37.686,66.4400,-0.000970
37.717,66.4160,-0.000970
37.747,66.3902,-0.000970
37.764,66.3772,-0.000970
37.795,66.3497,-0.000970
37.826,66.3231,-0.000970
37.842,66.3086,-0.000970
37.866,66.2867,-0.000970
37.882,66.2714,-0.000970
37.898,66.2568,-0.001271
37.914,66.2417,-0.001271
37.930,66.2259,-0.001271
37.946,66.2108,-0.001271
37.962,66.1945,-0.001271
37.977,66.1789,-0.001271
37.994,66.1627,-0.001271
38.010,66.1460,-0.001271
38.026,66.1292,-0.001271
38.042,66.1124,-0.001271
38.057,66.0957,-0.001271
38.074,66.0775,-0.001271
38.090,66.0608,-0.001271
38.106,66.0433,-0.001271
38.122,66.0256,-0.001224
38.138,66.0076,-0.001224
38.154,65.9894,-0.001224
38.170,65.9707,-0.001224
38.186,65.9523,-0.001224
38.201,65.9342,-0.001224
38.219,65.9141,-0.001224
38.234,65.8956,-0.001224
38.249,65.8767,-0.001224
38.266,65.8568,-0.001224
38.282,65.8371,-0.001224
38.297,65.8175,-0.001224
38.314,65.7973,-0.001224
38.330,65.7768,-0.001224
38.347,65.7550,-0.001224
38.368,65.7268,-0.001224
38.400,65.6858,-0.001158
38.431,65.6442,-0.001158
38.462,65.6016,-0.001158
38.492,65.5597,-0.001158
38.508,65.5376,-0.001158
38.532,65.5031,-0.001158
38.555,65.4707,-0.001158
38.571,65.4472,-0.001158
38.602,65.4015,-0.001158
38.617,65.3791,-0.001158
38.637,65.3492,-0.001158
38.664,65.3083,-0.001083
38.682,65.2813,-0.001083
38.697,65.2572,-0.001083
38.713,65.2321,-0.001083
38.730,65.2053,-0.001083
38.746,65.1814,-0.001083
38.762,65.1553,-0.001083
38.778,65.1288,-0.001083
38.804,65.0866,-0.001083
38.826,65.0512,-0.001083
38.842,65.0241,-0.001083
38.866,64.9841,-0.001083
38.882,64.9570,-0.000922
38.912,64.9054,-0.000922
38.927,64.8801,-0.000922
38.949,64.8429,-0.000922
38.965,64.8144,-0.000922
38.980,64.7874,-0.000922
38.996,64.7587,-0.000922
39.013,64.7293,-0.000922
39.029,64.7007,-0.000922
39.044,64.6733,-0.000922
39.060,64.6441,-0.000922
39.078,64.6101,-0.000922
39.097,64.5752,-0.000922
39.128,64.5182,-0.000922
39.143,64.4892,-0.000922
39.175,64.4301,-0.000762
39.206,64.3692,-0.000762
39.221,64.3394,-0.000762
39.252,64.2792,-0.000762
39.268,64.2470,-0.000762
39.284,64.2155,-0.000762
39.300,64.1835,-0.000762
39.316,64.1510,-0.000762
39.333,64.1180,-0.000762
39.348,64.0865,-0.000762
39.365,64.0514,-0.000762
39.381,64.0194,-0.000762
39.397,63.9862,-0.000762
39.412,63.9543,-0.000650
39.428,63.9194,-0.000650
39.444,63.8865,-0.000650
39.460,63.8525,-0.000650
39.476,63.8176,-0.000650
39.498,63.7706,-0.000650
39.514,63.7365,-0.000650
39.530,63.7040,-0.000650
39.546,63.6702,-0.000650
39.563,63.6342,-0.000650
39.579,63.6019,-0.000650
39.594,63.5712,-0.000650
39.611,63.5362,-0.000650
39.627,63.5040,-0.000650
39.642,63.4733,-0.000650
39.658,63.4410,-0.000612
39.674,63.4103,-0.000612
39.690,63.3780,-0.000612
39.706,63.3457,-0.000612
39.722,63.3159,-0.000612
39.738,63.2838,-0.000612
39.754,63.2527,-0.000612
39.770,63.2229,-0.000612
39.786,63.1925,-0.000612
39.802,63.1613,-0.000612
39.818,63.1308,-0.000612
39.834,63.1019,-0.000612
39.850,63.0720,-0.000612
39.866,63.0424,-0.000612
39.882,63.0125,-0.000612
39.898,62.9838,-0.000621
39.914,62.9550,-0.000621
39.930,62.9263,-0.000621
39.946,62.8960,-0.000621
39.962,62.8692,-0.000621
39.978,62.8403,-0.000621
39.994,62.8112,-0.000621
40.010,62.7839,-0.000621
40.027,62.7559,-0.000621
40.051,62.7151,-0.000621
40.067,62.6865,-0.000621
40.084,62.6592,-0.000621
40.102,62.6290,-0.000621
40.132,62.5786,-0.000546
40.148,62.5532,-0.000546
40.165,62.5252,-0.000546
40.193,62.4795,-0.000546
40.211,62.4518,-0.000546
40.228,62.4256,-0.000546
40.243,62.4014,-0.000546
40.259,62.3770,-0.000546
40.275,62.3519,-0.000546
40.291,62.3272,-0.000546
40.307,62.3038,-0.000546
40.323,62.2800,-0.000546
40.339,62.2559,-0.000546
40.355,62.2310,-0.000546
40.371,62.2085,-0.000471
40.387,62.1855,-0.000471
40.403,62.1623,-0.000471
40.419,62.1387,-0.000471
40.435,62.1166,-0.000471
40.451,62.0941,-0.000471
40.466,62.0721,-0.000471
40.484,62.0483,-0.000471
40.504,62.0210,-0.000471
40.519,62.0001,-0.000471
40.551,61.9578,-0.000471
40.581,61.9191,-0.000471
40.612,61.8770,-0.000471
40.642,61.8413,-0.000452
40.659,61.8194,-0.000452
40.675,61.8001,-0.000452
40.691,61.7804,-0.000452
40.707,61.7609,-0.000452
40.723,61.7416,-0.000452
40.739,61.7225,-0.000452
40.755,61.7041,-0.000452
40.771,61.6850,-0.000452
40.787,61.6667,-0.000452
40.803,61.6481,-0.000452
40.819,61.6302,-0.000452
40.835,61.6127,-0.000452
40.851,61.5948,-0.000452
40.866,61.5779,-0.000452
40.882,61.5605,-0.000395
40.900,61.5418,-0.000395
40.926,61.5148,-0.000395
40.946,61.4934,-0.000395
40.963,61.4767,-0.000395
40.978,61.4611,-0.000395
40.995,61.4447,-0.000395
41.011,61.4292,-0.000395
41.027,61.4131,-0.000395
41.042,61.3988,-0.000395
41.059,61.3829,-0.000395
41.074,61.3687,-0.000395
41.090,61.3527,-0.000395
41.114,61.3324,-0.000395
41.130,61.3186,-0.000395
41.145,61.3047,-0.000377
41.162,61.2900,-0.000377
41.178,61.2765,-0.000377
41.194,61.2630,-0.000377
41.210,61.2498,-0.000377
41.226,61.2368,-0.000377
41.241,61.2240,-0.000377
41.257,61.2115,-0.000377
41.273,61.1989,-0.000377
41.289,61.1866,-0.000377
41.305,61.1744,-0.000377
41.322,61.1623,-0.000377
41.337,61.1509,-0.000377
41.357,61.1355,-0.000377
41.375,61.1232,-0.000377
41.400,61.1067,-0.000433
41.418,61.0942,-0.000433
41.446,61.0760,-0.000433
41.466,61.0631,-0.000433
41.483,61.0530,-0.000433
41.498,61.0435,-0.000433
41.514,61.0340,-0.000433
41.530,61.0241,-0.000433
41.548,61.0140,-0.000433
41.569,61.0017,-0.000433
41.601,60.9848,-0.000433
41.633,60.9684,-0.000433
41.663,60.9534,-0.000461
41.679,60.9461,-0.000461
41.695,60.9384,-0.000461
41.711,60.9315,-0.000461
41.726,60.9247,-0.000461
41.742,60.9178,-0.000461
41.758,60.9109,-0.000461
41.788,60.8990,-0.000461
41.804,60.8933,-0.000461
41.820,60.8871,-0.000461
41.836,60.8816,-0.000461
41.851,60.8762,-0.000461
41.867,60.8707,-0.000461
41.898,60.8610,-0.000452
41.917,60.8553,-0.000452
41.937,60.8499,-0.000452
41.960,60.8438,-0.000452
41.977,60.8394,-0.000452
41.994,60.8356,-0.000452
42.010,60.8318,-0.000452
42.025,60.8287,-0.000452
42.042,60.8252,-0.000452
42.058,60.8222,-0.000452
42.073,60.8195,-0.000452
42.089,60.8168,-0.000452
42.106,60.8141,-0.000452
42.129,60.8112,-0.000395
42.159,60.8075,-0.000395
42.184,60.8051,-0.000395
42.206,60.8034,-0.000395
42.236,60.8015,-0.000395
42.252,60.8009,-0.000395
42.267,60.8004,-0.000395
42.283,60.8001,-0.000395
42.298,60.8000,-0.000395
42.330,60.8000,-0.000395
42.346,60.8000,-0.000395
42.376,60.8000,-0.000348
42.408,60.8000,-0.000348
42.423,60.8000,-0.000348
42.439,60.8000,-0.000348
42.455,60.8000,-0.000348
42.472,60.8000,-0.000348
42.487,60.8000,-0.000348
42.503,60.8000,-0.000348
42.519,60.8000,-0.000348
42.536,60.8000,-0.000348
42.551,60.8000,-0.000348
42.567,60.8000,-0.000348
42.583,60.8000,-0.000348
42.599,60.8000,-0.000348
42.615,60.8000,-0.000348
42.631,60.8000,-0.000282
42.647,60.8000,-0.000282
42.663,60.8000,-0.000282
42.679,60.8000,-0.000282
42.710,60.8000,-0.000282
42.726,60.8000,-0.000282
42.742,60.8000,-0.000282
42.758,60.8000,-0.000282
42.774,60.8000,-0.000282
42.790,60.8000,-0.000282
42.806,60.8000,-0.000282
42.822,60.8000,-0.000282
42.838,60.8000,-0.000282
42.854,60.8000,-0.000282
42.870,60.8000,-0.000235
42.886,60.8000,-0.000235
42.903,60.8003,-0.000235
42.918,60.8006,-0.000235
42.934,60.8012,-0.000235
42.951,60.8021,-0.000235
42.972,60.8035,-0.000235
42.995,60.8053,-0.000235
43.014,60.8071,-0.000235
43.030,60.8089,-0.000235
43.046,60.8108,-0.000235
43.062,60.8130,-0.000235
43.078,60.8154,-0.000235
43.094,60.8179,-0.000235
43.111,60.8207,-0.000235
43.126,60.8236,-0.000320
43.142,60.8267,-0.000320
43.159,60.8301,-0.000320
43.180,60.8349,-0.000320
43.196,60.8386,-0.000320
43.226,60.8464,-0.000320
43.257,60.8548,-0.000320
43.273,60.8595,-0.000320
43.289,60.8645,-0.000320
43.305,60.8693,-0.000320
43.320,60.8745,-0.000320
43.336,60.8798,-0.000320
43.368,60.8913,-0.000320
43.398,60.9028,-0.000452
43.414,60.9095,-0.000452
43.430,60.9161,-0.000452
43.446,60.9225,-0.000452
43.462,60.9296,-0.000452
43.478,60.9369,-0.000452
43.494,60.9446,-0.000452
43.510,60.9517,-0.000452
43.526,60.9598,-0.000452
43.541,60.9674,-0.000452
43.558,60.9754,-0.000452
43.574,60.9838,-0.000452
43.590,60.9926,-0.000452
43.606,61.0013,-0.000452
43.622,61.0102,-0.000489
43.639,61.0198,-0.000489
43.661,61.0330,-0.000489
43.677,61.0424,-0.000489
43.708,61.0617,-0.000489
43.738,61.0810,-0.000489
43.772,61.1037,-0.000489
43.801,61.1238,-0.000489
43.831,61.1452,-0.000489
43.861,61.1676,-0.000489
43.878,61.1798,-0.000489
43.893,61.1916,-0.000489
43.910,61.2042,-0.000508
43.925,61.2164,-0.000508
43.942,61.2298,-0.000508
43.957,61.2423,-0.000508
43.973,61.2552,-0.000508
43.993,61.2712,-0.000508
44.016,61.2915,-0.000508
44.037,61.3100,-0.000508
44.054,61.3249,-0.000508
44.075,61.3446,-0.000508
44.093,61.3599,-0.000508
44.123,61.3883,-0.000508
44.154,61.4183,-0.000584
44.185,61.4484,-0.000584
44.215,61.4784,-0.000584
44.246,61.5103,-0.000584
44.277,61.5427,-0.000584
44.301,61.5677,-0.000584
44.324,61.5924,-0.000584
44.341,61.6115,-0.000584
44.357,61.6295,-0.000584
44.372,61.6466,-0.000668
44.388,61.6657,-0.000668
44.404,61.6832,-0.000668
44.420,61.7017,-0.000668
44.437,61.7210,-0.000668
44.454,61.7415,-0.000668
44.478,61.7702,-0.000668
44.508,61.8076,-0.000668
44.524,61.8268,-0.000668
44.554,61.8657,-0.000668
44.569,61.8847,-0.000668
44.600,61.9237,-0.000668
44.630,61.9641,-0.000668
44.661,62.0051,-0.000574
44.676,62.0261,-0.000574
44.694,62.0495,-0.000574
44.709,62.0711,-0.000574
44.725,62.0932,-0.000574
44.740,62.1157,-0.000574
44.758,62.1412,-0.000574
44.777,62.1667,-0.000574
44.802,62.2023,-0.000574
44.820,62.2294,-0.000574
44.837,62.2548,-0.000574
44.853,62.2785,-0.000574
44.869,62.3024,-0.000574
44.885,62.3274,-0.000574
44.909,62.3638,-0.000574
44.940,62.4114,-0.000480
44.971,62.4592,-0.000480
44.986,62.4842,-0.000480
45.017,62.5341,-0.000480
45.032,62.5593,-0.000480
45.047,62.5830,-0.000480
45.079,62.6358,-0.000480
45.109,62.6857,-0.000480
45.125,62.7147,-0.000480
45.155,62.7658,-0.000508
45.172,62.7939,-0.000508
45.189,62.8252,-0.000508
45.218,62.8745,-0.000508
45.236,62.9075,-0.000508
45.252,62.9364,-0.000508
45.268,62.9650,-0.000508
45.284,62.9931,-0.000508
45.300,63.0225,-0.000508
45.316,63.0533,-0.000508
45.333,63.0837,-0.000508
45.349,63.1128,-0.000508
45.371,63.1558,-0.000508
45.388,63.1865,-0.000508
45.405,63.2186,-0.000537
45.433,63.2751,-0.000537
45.456,63.3173,-0.000537
45.480,63.3654,-0.000537
45.499,63.4038,-0.000537
45.515,63.4353,-0.000537
45.531,63.4661,-0.000537
45.547,63.4989,-0.000537
45.563,63.5314,-0.000537
45.579,63.5656,-0.000537
45.595,63.5972,-0.000537
45.611,63.6295,-0.000537
45.627,63.6643,-0.000537
45.644,63.6992,-0.000537
45.665,63.7440,-0.000621
45.696,63.8093,-0.000621
45.727,63.8734,-0.000621
45.758,63.9382,-0.000621
45.774,63.9730,-0.000621
45.790,64.0047,-0.000621
45.821,64.0678,-0.000621
45.852,64.1325,-0.000621
45.883,64.1924,-0.000621
45.899,64.2259,-0.000621
45.925,64.2774,-0.000621
45.941,64.3075,-0.000621
45.957,64.3380,-0.000621
45.973,64.3682,-0.000621
45.989,64.3985,-0.000621
46.005,64.4299,-0.000621
46.021,64.4594,-0.000621
46.037,64.4902,-0.000621
46.052,64.5191,-0.000621
46.069,64.5500,-0.000621
46.084,64.5784,-0.000621
46.101,64.6077,-0.000621
46.118,64.6387,-0.000621
46.134,64.6672,-0.000621
46.150,64.6963,-0.000659
46.178,64.7462,-0.000659
46.197,64.7795,-0.000659
46.213,64.8075,-0.000659
46.229,64.8344,-0.000659
46.245,64.8635,-0.000659
46.261,64.8901,-0.000659
46.277,64.9162,-0.000659
46.293,64.9439,-0.000659
46.309,64.9712,-0.000659
46.325,64.9973,-0.000659
46.341,65.0229,-0.000659
46.357,65.0492,-0.000659
46.373,65.0770,-0.000659
46.389,65.1014,-0.000857
46.404,65.1262,-0.000857
46.421,65.1521,-0.000857
46.451,65.1999,-0.000857
46.474,65.2355,-0.000857
46.504,65.2811,-0.000857
46.534,65.3275,-0.000857
46.564,65.3713,-0.000857
46.596,65.4167,-0.000857
46.625,65.4597,-0.000857
46.642,65.4828,-0.000970
46.657,65.5047,-0.000970
46.674,65.5283,-0.000970
46.689,65.5496,-0.000970
46.706,65.5721,-0.000970
46.721,65.5926,-0.000970
46.743,65.6229,-0.000970
46.758,65.6419,-0.000970
46.780,65.6714,-0.000970
46.804,65.7038,-0.000970
46.827,65.7319,-0.000970
46.858,65.7698,-0.000970
46.873,65.7905,-0.000970
46.904,65.8273,-0.000998
46.920,65.8466,-0.000998
46.936,65.8653,-0.000998
46.966,65.9026,-0.000998
46.990,65.9283,-0.000998
47.005,65.9461,-0.000998
47.021,65.9640,-0.000998
47.038,65.9825,-0.000998
47.053,66.0003,-0.000998
47.069,66.0172,-0.000998
47.086,66.0348,-0.000998
47.102,66.0519,-0.000998
47.118,66.0695,-0.000998
47.133,66.0853,-0.001064
47.150,66.1021,-0.001064
47.166,66.1186,-0.001064
47.181,66.1345,-0.001064
47.197,66.1504,-0.001064
47.213,66.1660,-0.001064
47.230,66.1830,-0.001064
47.246,66.1974,-0.001064
47.261,66.2124,-0.001064
47.278,66.2284,-0.001064
47.294,66.2433,-0.001064
47.325,66.2708,-0.001064
47.341,66.2852,-0.001064
47.363,66.3050,-0.001064
47.386,66.3239,-0.001064
47.406,66.3410,-0.001243
47.421,66.3537,-0.001243
47.437,66.3670,-0.001243
47.453,66.3792,-0.001243
47.470,66.3930,-0.001243
47.490,66.4090,-0.001243
47.516,66.4278,-0.001243
47.531,66.4392,-0.001243
47.556,66.4575,-0.001243
47.587,66.4797,-0.001243
47.618,66.5006,-0.001243
47.633,66.5110,-0.001243
47.649,66.5215,-0.001318
47.680,66.5409,-0.001318
47.696,66.5507,-0.001318
47.727,66.5692,-0.001318
47.758,66.5874,-0.001318
47.788,66.6043,-0.001318
47.820,66.6210,-0.001318
47.850,66.6367,-0.001318
47.866,66.6449,-0.001318
47.882,66.6522,-0.001318
47.898,66.6596,-0.001318
47.914,66.6667,-0.001318
47.936,66.6764,-0.001318
47.958,66.6859,-0.001318
47.978,66.6943,-0.001318
47.995,66.7007,-0.001318
48.011,66.7067,-0.001318
48.027,66.7128,-0.001318
48.052,66.7214,-0.001318
48.074,66.7290,-0.001318
48.097,66.7363,-0.001318
48.117,66.7425,-0.001318
48.133,66.7469,-0.001318
48.159,66.7539,-0.001431
48.175,66.7582,-0.001431
48.198,66.7642,-0.001431
48.221,66.7690,-0.001431
48.237,66.7724,-0.001431
48.252,66.7755,-0.001431
48.283,66.7810,-0.001431
48.314,66.7859,-0.001431
48.329,66.7881,-0.001431
48.360,66.7918,-0.001431
48.376,66.7934,-0.001431
48.406,66.7962,-0.001581
48.422,66.7973,-0.001581
48.437,66.7982,-0.001581
48.469,66.7995,-0.001581
48.485,66.7998,-0.001581
48.500,66.8000,-0.001581
48.516,66.8000,-0.001581
48.532,66.8000,-0.001581
48.550,66.8000,-0.001581
48.576,66.8000,-0.001581
48.596,66.8000,-0.001581
48.612,66.8000,-0.001581
48.628,66.8000,-0.001581
48.644,66.8000,-0.001581
48.660,66.8000,-0.001581
48.676,66.8000,-0.001581
48.692,66.8000,-0.001581
48.708,66.8000,-0.001581
48.724,66.8000,-0.001581
48.740,66.8000,-0.001581
48.756,66.8000,-0.001581
48.772,66.8000,-0.001581
48.788,66.8000,-0.001581
48.804,66.8000,-0.001581
48.820,66.8000,-0.001581
48.837,66.8000,-0.001581
48.859,66.8000,-0.001581
48.884,66.8000,-0.001534
48.900,66.8000,-0.001534
48.916,66.8000,-0.001534
48.932,66.8000,-0.001534
48.949,66.8000,-0.001534
48.969,66.8000,-0.001534
48.994,66.8000,-0.001534
49.012,66.8000,-0.001534
49.028,66.8000,-0.001534
49.044,66.8000,-0.001534
49.059,66.8000,-0.001534
49.076,66.8000,-0.001534
49.092,66.8000,-0.001534
49.107,66.8000,-0.001534
49.124,66.8000,-0.001534
49.140,66.8000,-0.001553
49.156,66.8000,-0.001553
49.172,66.8000,-0.001553
49.188,66.8000,-0.001553
49.204,66.8000,-0.001553
49.219,66.8000,-0.001553
49.236,66.8000,-0.001553
49.252,66.8000,-0.001553
49.268,66.8000,-0.001553
49.283,66.8000,-0.001553
49.300,66.8000,-0.001553
49.317,66.8000,-0.001553
49.346,66.8000,-0.001553
49.363,66.8000,-0.001553
49.387,66.8000,-0.001553
49.408,66.8000,-0.001553
49.427,66.8000,-0.001544
49.444,66.8000,-0.001544
49.460,66.8000,-0.001544
49.475,66.8000,-0.001544
49.492,66.8000,-0.001544
49.508,66.8000,-0.001544
49.523,66.8000,-0.001544
49.539,66.8000,-0.001544
49.555,66.8000,-0.001544
49.572,66.8000,-0.001544
49.587,66.8000,-0.001544
49.603,66.8000,-0.001544
49.619,66.8000,-0.001544
49.636,66.8000,-0.001544
49.652,66.8000,-0.001544
49.668,66.8000,-0.001553
49.692,66.8000,-0.001553
49.708,66.8000,-0.001553
49.724,66.8000,-0.001553
49.741,66.8000,-0.001553
49.758,66.8000,-0.001553
49.776,66.8000,-0.001553
49.795,66.8000,-0.001553
49.826,66.8000,-0.001553
49.857,66.8000,-0.001553
49.873,66.8000,-0.001553
49.904,66.8000,-0.001563
49.919,66.8000,-0.001563
49.951,66.8000,-0.001563
49.967,66.8000,-0.001563
49.997,66.8000,-0.001563
50.018,66.8000,-0.001563
50.043,66.8000,-0.001563
50.061,66.8000,-0.001563
50.076,66.8000,-0.001563
50.092,66.8000,-0.001563
50.108,66.8000,-0.001563
50.125,66.8000,-0.001563
50.140,66.8000,-0.001563
50.156,66.8000,-0.001516
50.173,66.8000,-0.001516
50.189,66.8000,-0.001516
50.205,66.8000,-0.001516
50.220,66.8000,-0.001516
50.244,66.8000,-0.001516
50.260,66.8000,-0.001516
50.275,66.8000,-0.001516
50.292,66.8000,-0.001516
50.309,66.8000,-0.001516
50.340,66.8000,-0.001516
50.355,66.8000,-0.001516
50.372,66.8000,-0.001516
50.387,66.8000,-0.001516
50.403,66.8000,-0.001525
50.420,66.8000,-0.001525
50.436,66.8000,-0.001525
50.451,66.8000,-0.001525
50.468,66.8000,-0.001525
50.484,66.8000,-0.001525
50.500,66.8000,-0.001525
50.525,66.8000,-0.001525
50.555,66.8000,-0.001525
50.571,66.8000,-0.001525
50.601,66.8000,-0.001525
50.632,66.8000,-0.001525
50.647,66.8000,-0.001525
50.663,66.8000,-0.001525
50.694,66.8000,-0.001525
50.710,66.8000,-0.001525
50.741,66.8000,-0.001525
50.756,66.8000,-0.001525
50.772,66.8000,-0.001525
50.797,66.8000,-0.001525
50.818,66.8000,-0.001525
50.848,66.8000,-0.001525
50.864,66.8000,-0.001525
50.880,66.8000,-0.001525
50.911,66.8000,-0.001534
50.927,66.8000,-0.001534
50.958,66.8000,-0.001534
50.988,66.8000,-0.001534
51.005,66.8000,-0.001534
51.020,66.8000,-0.001534
51.036,66.8000,-0.001534
51.054,66.8000,-0.001534
51.082,66.8000,-0.001534
51.100,66.8000,-0.001534
51.117,66.8000,-0.001534
51.144,66.8000,-0.001544
51.164,66.8000,-0.001544
51.180,66.8000,-0.001544
51.196,66.8000,-0.001544
51.212,66.8000,-0.001544
51.228,66.8000,-0.001544
51.245,66.8000,-0.001544
51.261,66.8000,-0.001544
51.276,66.8000,-0.001544
51.292,66.8000,-0.001544
51.321,66.8000,-0.001544
51.337,66.8000,-0.001544
51.353,66.8000,-0.001544
51.369,66.8000,-0.001544
51.385,66.8000,-0.001572
51.401,66.8000,-0.001572
51.417,66.8000,-0.001572
51.433,66.8000,-0.001572
51.449,66.8000,-0.001572
51.465,66.8000,-0.001572
51.481,66.8000,-0.001572
51.497,66.8000,-0.001572
51.513,66.8000,-0.001572
51.530,66.8000,-0.001572
51.546,66.8000,-0.001572
51.577,66.8000,-0.001572
51.593,66.8000,-0.001572
51.609,66.8000,-0.001572
51.625,66.8000,-0.001619
51.641,66.8000,-0.001619
51.657,66.8000,-0.001619
51.673,66.8000,-0.001619
51.690,66.8000,-0.001619
51.705,66.8000,-0.001619
51.721,66.8000,-0.001619
51.737,66.8000,-0.001619
51.753,66.8000,-0.001619
51.769,66.8000,-0.001619
51.785,66.8000,-0.001619
51.802,66.8000,-0.001619
51.826,66.8000,-0.001619
51.856,66.8000,-0.001619
51.888,66.8000,-0.001619
51.918,66.8000,-0.001619
51.949,66.8000,-0.001619
51.965,66.8000,-0.001619
51.995,66.8000,-0.001619
52.026,66.8000,-0.001619
52.041,66.8000,-0.001619
52.056,66.8000,-0.001619
52.072,66.8000,-0.001619
52.091,66.8000,-0.001619
52.120,66.8000,-0.001572
52.137,66.8000,-0.001572
52.153,66.8000,-0.001572
52.173,66.8000,-0.001572
52.196,66.8000,-0.001572
52.222,66.8000,-0.001572
52.243,66.8000,-0.001572
52.273,66.8000,-0.001572
52.290,66.8000,-0.001572
52.320,66.8000,-0.001572
52.356,66.8000,-0.001572
52.376,66.8000,-0.001572
52.392,66.8000,-0.001572
52.409,66.8000,-0.001534
52.425,66.8000,-0.001534
52.441,66.8000,-0.001534
52.457,66.8000,-0.001534
52.473,66.8000,-0.001534
52.489,66.8000,-0.001534
52.519,66.8000,-0.001534
52.541,66.8000,-0.001534
52.566,66.8000,-0.001534
52.584,66.8000,-0.001534
52.603,66.8000,-0.001534
52.627,66.8000,-0.001572
52.649,66.8000,-0.001572
52.665,66.8000,-0.001572
52.681,66.8000,-0.001572
52.696,66.8000,-0.001572
52.712,66.8000,-0.001572
52.729,66.8000,-0.001572
52.744,66.8000,-0.001572
52.760,66.8000,-0.001572
52.777,66.8000,-0.001572
52.793,66.8000,-0.001572
52.808,66.8000,-0.001572
52.825,66.8000,-0.001572
52.840,66.8000,-0.001572
52.857,66.8000,-0.001572
52.872,66.8000,-0.001591
52.889,66.8000,-0.001591
52.905,66.8000,-0.001591
52.921,66.8000,-0.001591
52.936,66.8000,-0.001591
52.964,66.8000,-0.001591
52.979,66.8000,-0.001591
52.995,66.8000,-0.001591
53.011,66.8000,-0.001591
53.027,66.8000,-0.001591
53.044,66.8000,-0.001591
53.059,66.8000,-0.001591
53.075,66.8000,-0.001591
53.092,66.8000,-0.001591
53.108,66.8000,-0.001591
53.124,66.8000,-0.001647
53.139,66.8000,-0.001647
53.155,66.8000,-0.001647
53.172,66.8000,-0.001647
53.187,66.8000,-0.001647
53.203,66.8000,-0.001647
53.220,66.8000,-0.001647
53.236,66.8000,-0.001647
53.251,66.8000,-0.001647
53.267,66.8000,-0.001647
53.285,66.7998,-0.001647
53.308,66.7993,-0.001647
53.339,66.7978,-0.001647
53.368,66.7957,-0.001647
53.384,66.7944,-0.001713
53.414,66.7912,-0.001713
53.445,66.7872,-0.001713
53.476,66.7827,-0.001713
53.491,66.7800,-0.001713
53.518,66.7752,-0.001713
53.535,66.7719,-0.001713
53.550,66.7685,-0.001713
53.566,66.7650,-0.001713
53.582,66.7612,-0.001713
53.598,66.7571,-0.001713
53.614,66.7530,-0.001713
53.630,66.7485,-0.001007
53.647,66.7438,-0.001007
53.676,66.7349,-0.001007
53.694,66.7293,-0.001007
53.713,66.7230,-0.001007
53.737,66.7146,-0.001007
53.758,66.7069,-0.001007
53.775,66.7003,-0.001007
53.791,66.6941,-0.001007
53.814,66.6844,-0.001007
53.845,66.6709,-0.001007
53.877,66.6569,0.000489
53.907,66.6421,0.000489
53.938,66.6269,0.000489
53.969,66.6103,0.000489
54.000,66.5939,0.000489
54.030,66.5764,0.000489
54.056,66.5610,0.000489
54.079,66.5470,0.000489
54.108,66.5285,0.000489
54.139,66.5091,0.000489
54.169,66.4885,-0.000075
54.186,66.4767,-0.000075
54.217,66.4542,-0.000075
54.247,66.4324,-0.000075
54.264,66.4196,-0.000075
54.281,66.4067,-0.000075
54.310,66.3839,-0.000075
54.332,66.3659,-0.000075
54.356,66.3466,-0.000075
54.376,66.3295,-0.000075
54.392,66.3168,-0.000075
54.408,66.3032,-0.001384
54.424,66.2892,-0.001384
54.440,66.2748,-0.001384
54.456,66.2603,-0.001384
54.472,66.2458,-0.001384
54.488,66.2310,-0.001384
54.504,66.2160,-0.001384
54.519,66.2010,-0.001384
54.536,66.1861,-0.001384
54.552,66.1701,-0.001384
54.581,66.1415,-0.001384
54.597,66.1255,-0.001384
54.613,66.1097,-0.001384
54.629,66.0928,-0.001384
54.646,66.0756,-0.001261
54.667,66.0519,-0.001261
54.683,66.0357,-0.001261
54.714,66.0009,-0.001261
54.745,65.9674,-0.001261
54.776,65.9319,-0.001261
54.791,65.9147,-0.001261
54.822,65.8789,-0.001261
54.853,65.8413,-0.001261
54.870,65.8210,-0.001261
54.891,65.7944,-0.001261
54.914,65.7675,-0.001139
54.934,65.7418,-0.001139
54.960,65.7086,-0.001139
54.981,65.6822,-0.001139
54.997,65.6592,-0.001139
55.013,65.6395,-0.001139
55.028,65.6189,-0.001139
55.044,65.5972,-0.001139
55.060,65.5758,-0.001139
55.076,65.5537,-0.001139
55.093,65.5313,-0.001139
55.115,65.5006,-0.001139
55.131,65.4777,-0.001139
55.147,65.4555,-0.001064
55.162,65.4330,-0.001064
55.180,65.4070,-0.001064
55.207,65.3664,-0.001064
55.227,65.3386,-0.001064
55.243,65.3147,-0.001064
55.259,65.2913,-0.001064
55.275,65.2668,-0.001064
55.291,65.2408,-0.001064
55.307,65.2164,-0.001064
55.323,65.1916,-0.001064
55.339,65.1658,-0.001064
55.354,65.1428,-0.001064
55.370,65.1174,-0.001064
55.386,65.0920,-0.000988
55.403,65.0653,-0.000988
55.419,65.0395,-0.000988
55.435,65.0127,-0.000988
55.451,64.9862,-0.000988
55.466,64.9604,-0.000988
55.482,64.9340,-0.000988
55.498,64.9069,-0.000988
55.514,64.8799,-0.000988
55.530,64.8528,-0.000988
55.546,64.8252,-0.000988
55.562,64.7968,-0.000988
55.579,64.7681,-0.000988
55.594,64.7409,-0.000988
55.610,64.7117,-0.000988
55.627,64.6829,-0.000988
55.643,64.6548,-0.000988
55.670,64.6047,-0.000904
55.686,64.5743,-0.000904
55.702,64.5458,-0.000904
55.719,64.5156,-0.000904
55.736,64.4829,-0.000904
55.766,64.4261,-0.000904
55.782,64.3956,-0.000904
55.798,64.3646,-0.000904
55.815,64.3329,-0.000904
55.831,64.3029,-0.000904
55.847,64.2715,-0.000904
55.862,64.2405,-0.000904
55.878,64.2085,-0.000904
55.894,64.1775,-0.000772
55.910,64.1449,-0.000772
55.927,64.1099,-0.000772
55.943,64.0794,-0.000772
55.958,64.0484,-0.000772
55.974,64.0157,-0.000772
55.991,63.9817,-0.000772
56.007,63.9483,-0.000772
56.022,63.9157,-0.000772
56.038,63.8827,-0.000772
56.055,63.8486,-0.000772
56.071,63.8139,-0.000772
56.087,63.7802,-0.000772
56.102,63.7462,-0.000772
56.118,63.7128,-0.000772
56.135,63.6785,-0.000621
56.150,63.6455,-0.000621
56.170,63.6039,-0.000621
56.196,63.5502,-0.000621
56.226,63.4883,-0.000621
56.243,63.4545,-0.000621
56.265,63.4097,-0.000621
56.288,63.3639,-0.000621
56.306,63.3279,-0.000621
56.322,63.2949,-0.000621
56.338,63.2649,-0.000621
56.355,63.2319,-0.000621
56.370,63.2021,-0.000621
56.386,63.1731,-0.000631
56.402,63.1423,-0.000631
56.418,63.1102,-0.000631
56.434,63.0799,-0.000631
56.450,63.0517,-0.000631
56.466,63.0220,-0.000631
56.482,62.9911,-0.000631
56.498,62.9629,-0.000631
56.514,62.9336,-0.000631
56.530,62.9043,-0.000631
56.546,62.8762,-0.000631
56.562,62.8470,-0.000631
56.578,62.8179,-0.000631
56.595,62.7886,-0.000631
56.610,62.7624,-0.000631
56.627,62.7325,-0.000565
56.644,62.7046,-0.000565
56.660,62.6761,-0.000565
56.676,62.6482,-0.000565
56.706,62.5987,-0.000565
56.722,62.5702,-0.000565
56.738,62.5449,-0.000565
56.754,62.5189,-0.000565
56.780,62.4767,-0.000565
56.796,62.4511,-0.000565
56.812,62.4247,-0.000565
56.828,62.4004,-0.000565
56.846,62.3723,-0.000565
56.874,62.3279,-0.000414
56.892,62.3002,-0.000414
56.908,62.2748,-0.000414
56.924,62.2522,-0.000414
56.941,62.2264,-0.000414
56.957,62.2028,-0.000414
56.973,62.1783,-0.000414
56.989,62.1545,-0.000414
57.014,62.1192,-0.000414
57.032,62.0941,-0.000414
57.052,62.0650,-0.000414
57.068,62.0431,-0.000414
57.084,62.0202,-0.000414
57.100,61.9980,-0.000414
57.116,61.9767,-0.000414
57.132,61.9544,-0.000433
57.148,61.9333,-0.000433
57.164,61.9119,-0.000433
57.180,61.8912,-0.000433
57.196,61.8696,-0.000433
57.212,61.8489,-0.000433
57.228,61.8278,-0.000433
57.244,61.8081,-0.000433
57.261,61.7866,-0.000433
57.276,61.7670,-0.000433
57.304,61.7334,-0.000433
57.320,61.7138,-0.000433
57.336,61.6951,-0.000433
57.352,61.6757,-0.000433
57.368,61.6566,-0.000414
57.384,61.6387,-0.000414
57.400,61.6203,-0.000414
57.416,61.6014,-0.000414
57.432,61.5841,-0.000414
57.448,61.5654,-0.000414
57.466,61.5456,-0.000414
57.495,61.5141,-0.000414
57.512,61.4966,-0.000414
57.528,61.4797,-0.000414
57.544,61.4628,-0.000414
57.560,61.4456,-0.000414
57.576,61.4302,-0.000414
57.594,61.4105,-0.000414
57.618,61.3876,-0.000414
57.634,61.3720,-0.000433
57.666,61.3410,-0.000433
57.688,61.3210,-0.000433
57.704,61.3065,-0.000433
57.720,61.2911,-0.000433
57.736,61.2774,-0.000433
57.752,61.2630,-0.000433
57.768,61.2491,-0.000433
57.784,61.2353,-0.000433
57.800,61.2214,-0.000433
57.815,61.2084,-0.000433
57.832,61.1949,-0.000433
57.848,61.1819,-0.000433
57.863,61.1694,-0.000433
57.879,61.1567,-0.000442
57.895,61.1441,-0.000442
57.912,61.1321,-0.000442
57.927,61.1195,-0.000442
57.947,61.1050,-0.000442
57.975,61.0853,-0.000442
57.991,61.0735,-0.000442
58.010,61.0603,-0.000442
58.036,61.0430,-0.000442
58.056,61.0302,-0.000442
58.072,61.0194,-0.000442
58.087,61.0099,-0.000442
58.103,61.0001,-0.000442
58.120,60.9900,-0.000442
58.136,60.9803,-0.000442
58.152,60.9708,-0.000452
58.176,60.9575,-0.000452
58.192,60.9483,-0.000452
58.222,60.9322,-0.000452
58.254,60.9160,-0.000452
58.270,60.9079,-0.000452
58.301,60.8932,-0.000452
58.332,60.8790,-0.000452
58.363,60.8660,-0.000452
58.380,60.8588,-0.000452
58.409,60.8471,-0.000433
58.440,60.8359,-0.000433
58.455,60.8304,-0.000433
58.471,60.8248,-0.000433
58.488,60.8195,-0.000433
58.504,60.8144,-0.000433
58.519,60.8096,-0.000433
58.536,60.8047,-0.000433
58.552,60.8001,-0.000433
58.572,60.7946,-0.000433
58.595,60.7891,-0.000433
58.615,60.7843,-0.000433
58.633,60.7804,-0.000433
58.657,60.7755,-0.000433
58.672,60.7726,-0.000377
58.688,60.7696,-0.000377
58.703,60.7671,-0.000377
58.719,60.7648,-0.000377
58.750,60.7604,-0.000377
58.781,60.7570,-0.000377
58.812,60.7540,-0.000377
58.828,60.7530,-0.000377
58.844,60.7520,-0.000377
58.859,60.7513,-0.000377
58.875,60.7506,-0.000377
58.897,60.7502,-0.000442
58.914,60.7500,-0.000442
58.930,60.7500,-0.000442
58.945,60.7500,-0.000442
58.962,60.7500,-0.000442
58.977,60.7500,-0.000442
58.993,60.7500,-0.000442
59.010,60.7500,-0.000442
59.026,60.7500,-0.000442
59.041,60.7500,-0.000442
59.057,60.7502,-0.000442
59.073,60.7504,-0.000442
59.090,60.7508,-0.000442
59.105,60.7514,-0.000442
59.122,60.7524,-0.000442
59.137,60.7533,-0.000442
59.153,60.7545,-0.000424
59.169,60.7560,-0.000424
59.185,60.7576,-0.000424
59.201,60.7593,-0.000424
59.217,60.7613,-0.000424
59.233,60.7635,-0.000424
59.249,60.7659,-0.000424
59.265,60.7684,-0.000424
59.282,60.7712,-0.000424
59.298,60.7745,-0.000424
59.314,60.7774,-0.000424
59.329,60.7807,-0.000424
59.346,60.7845,-0.000424
59.361,60.7881,-0.000424
59.377,60.7921,-0.000424
59.394,60.7962,-0.000424
59.419,60.8031,-0.000424
59.439,60.8089,-0.000452
59.455,60.8140,-0.000452
59.471,60.8189,-0.000452
59.487,60.8242,-0.000452
59.504,60.8301,-0.000452
59.519,60.8354,-0.000452
59.535,60.8412,-0.000452
59.551,60.8470,-0.000452
59.567,60.8536,-0.000452
59.583,60.8597,-0.000452
59.599,60.8665,-0.000452
59.615,60.8733,-0.000452
59.631,60.8805,-0.000452
59.647,60.8876,-0.000537
59.663,60.8948,-0.000537
59.679,60.9023,-0.000537
59.695,60.9108,-0.000537
59.711,60.9183,-0.000537
59.727,60.9265,-0.000537
59.744,60.9357,-0.000537
59.774,60.9517,-0.000537
59.791,60.9610,-0.000537
59.807,60.9704,-0.000537
59.823,60.9796,-0.000537
59.839,60.9890,-0.000537
59.855,60.9986,-0.000537
59.872,61.0094,-0.000537
59.887,61.0192,-0.000537
59.903,61.0295,-0.000537
59.920,61.0401,-0.000537
59.939,61.0536,-0.000537
59.965,61.0710,-0.000537
59.980,61.0815,-0.000537
59.996,61.0930,-0.000537
60.012,61.1047,-0.000537
60.028,61.1163,-0.000537
60.044,61.1283,-0.000537
60.060,61.1403,-0.000537
60.076,61.1530,-0.000537
60.092,61.1653,-0.000537
60.108,61.1782,-0.000537
60.124,61.1909,-0.000537
60.140,61.2041,-0.000537
60.156,61.2175,-0.000574
60.172,61.2314,-0.000574
60.188,61.2451,-0.000574
60.204,61.2589,-0.000574
60.221,61.2739,-0.000574
60.237,61.2889,-0.000574
60.253,61.3028,-0.000574
60.284,61.3319,-0.000574
60.300,61.3465,-0.000574
60.316,61.3623,-0.000574
60.332,61.3775,-0.000574
60.354,61.4003,-0.000574
60.377,61.4216,-0.000574
60.395,61.4412,-0.000574
60.413,61.4585,-0.000659
60.428,61.4753,-0.000659
60.444,61.4909,-0.000659
60.460,61.5079,-0.000659
60.476,61.5262,-0.000659
60.499,61.5512,-0.000659
60.516,61.5699,-0.000659
60.532,61.5881,-0.000659
60.548,61.6054,-0.000659
60.564,61.6243,-0.000659
60.580,61.6423,-0.000659
60.596,61.6612,-0.000659
60.612,61.6795,-0.000659
60.632,61.7054,-0.000659
60.655,61.7319,-0.000687
60.676,61.7575,-0.000687
60.691,61.7776,-0.000687
60.707,61.7967,-0.000687
60.723,61.8170,-0.000687
60.739,61.8375,-0.000687
60.755,61.8582,-0.000687
60.771,61.8789,-0.000687
60.787,61.8998,-0.000687
60.804,61.9228,-0.000687
60.820,61.9446,-0.000687
60.840,61.9704,-0.000687
60.870,62.0117,-0.000687
60.887,62.0350,-0.000687
60.917,62.0776,-0.000602
60.933,62.0997,-0.000602
60.949,62.1236,-0.000602
60.980,62.1681,-0.000602
60.999,62.1964,-0.000602
61.025,62.2361,-0.000602
61.055,62.2799,-0.000602
61.071,62.3042,-0.000602
61.087,62.3286,-0.000602
61.102,62.3532,-0.000602
61.119,62.3790,-0.000602
61.135,62.4041,-0.000602
61.151,62.4304,-0.000489
61.166,62.4542,-0.000489
61.183,62.4815,-0.000489
61.199,62.5067,-0.000489
61.214,62.5319,-0.000489
61.230,62.5583,-0.000489
61.251,62.5935,-0.000489
61.274,62.6332,-0.000489
61.295,62.6664,-0.000489
61.311,62.6937,-0.000489
61.326,62.7211,-0.000489
61.342,62.7482,-0.000489
61.359,62.7781,-0.000489
61.380,62.8150,-0.000489
61.396,62.8444,-0.000489
61.427,62.8979,-0.000508
61.458,62.9560,-0.000508
61.488,63.0109,-0.000508
61.504,63.0410,-0.000508
61.535,63.0985,-0.000508
61.550,63.1274,-0.000508
61.567,63.1584,-0.000508
61.597,63.2169,-0.000508
61.615,63.2520,-0.000508
61.631,63.2826,-0.000508
61.647,63.3128,-0.000527
61.663,63.3465,-0.000527
61.684,63.3906,-0.000527
61.708,63.4359,-0.000527
61.727,63.4726,-0.000527
61.743,63.5081,-0.000527
61.759,63.5397,-0.000527
61.774,63.5699,-0.000527
61.790,63.6031,-0.000527
61.807,63.6388,-0.000527
61.823,63.6719,-0.000527
61.838,63.7045,-0.000527
61.854,63.7379,-0.000527
61.871,63.7732,-0.000527
61.886,63.8058,-0.000631
61.902,63.8395,-0.000631
61.919,63.8759,-0.000631
61.941,63.9218,-0.000631
61.969,63.9792,-0.000631
62.001,64.0446,-0.000631
62.016,64.0745,-0.000631
62.032,64.1060,-0.000631
62.049,64.1397,-0.000631
62.078,64.1987,-0.000631
62.095,64.2294,-0.000631
62.110,64.2629,-0.000631
62.135,64.3088,-0.000725
62.157,64.3496,-0.000725
62.188,64.4091,-0.000725
62.204,64.4385,-0.000725
62.234,64.4949,-0.000725
62.265,64.5523,-0.000725
62.296,64.6081,-0.000725
62.327,64.6638,-0.000725
62.343,64.6909,-0.000725
62.358,64.7189,-0.000725
62.374,64.7456,-0.000772
62.390,64.7737,-0.000772
62.407,64.8026,-0.000772
62.422,64.8289,-0.000772
62.438,64.8561,-0.000772
62.454,64.8825,-0.000772
62.470,64.9092,-0.000772
62.486,64.9359,-0.000772
62.506,64.9710,-0.000772
62.521,64.9945,-0.000772
62.544,65.0314,-0.000772
62.575,65.0825,-0.000772
62.598,65.1168,-0.000772
62.614,65.1417,-0.000772
62.631,65.1679,-0.000772
62.646,65.1917,-0.000772
62.662,65.2157,-0.000772
62.684,65.2498,-0.000875
62.707,65.2851,-0.000875
62.729,65.3172,-0.000875
62.747,65.3431,-0.000875
62.763,65.3664,-0.000875
62.779,65.3894,-0.000875
62.795,65.4121,-0.000875
62.812,65.4363,-0.000875
62.839,65.4737,-0.000875
62.859,65.5015,-0.000875
62.876,65.5248,-0.000875
62.891,65.5458,-0.000875
62.907,65.5661,-0.000988
62.923,65.5876,-0.000988
62.940,65.6110,-0.000988
62.961,65.6375,-0.000988
62.976,65.6575,-0.000988
63.007,65.6973,-0.000988
63.023,65.7170,-0.000988
63.054,65.7562,-0.000988
63.071,65.7767,-0.000988
63.101,65.8123,-0.000988
63.131,65.8480,-0.000988
63.147,65.8661,-0.001120
63.162,65.8842,-0.001120
63.179,65.9038,-0.001120
63.196,65.9212,-0.001120
63.211,65.9390,-0.001120
63.237,65.9676,-0.001120
63.253,65.9852,-0.001120
63.269,66.0018,-0.001120
63.285,66.0185,-0.001120
63.301,66.0352,-0.001120
63.318,66.0530,-0.001120
63.348,66.0838,-0.001120
63.367,66.1024,-0.001120
63.386,66.1209,-0.001120
63.410,66.1437,-0.001224
63.429,66.1623,-0.001224
63.445,66.1769,-0.001224
63.461,66.1924,-0.001224
63.477,66.2071,-0.001224
63.493,66.2212,-0.001224
63.509,66.2353,-0.001224
63.524,66.2487,-0.001224
63.541,66.2639,-0.001224
63.558,66.2778,-0.001224
63.580,66.2959,-0.001224
63.611,66.3214,-0.001224
63.641,66.3451,-0.001271
63.656,66.3573,-0.001271
63.672,66.3693,-0.001271
63.703,66.3925,-0.001271
63.718,66.4035,-0.001271
63.733,66.4144,-0.001271
63.749,66.4257,-0.001271
63.765,66.4365,-0.001271
63.791,66.4544,-0.001271
63.807,66.4649,-0.001271
63.823,66.4756,-0.001271
63.839,66.4856,-0.001271
63.857,66.4965,-0.001271
63.872,66.5061,-0.001271
63.888,66.5153,-0.001327
63.903,66.5244,-0.001327
63.919,66.5340,-0.001327
63.936,66.5432,-0.001327
63.952,66.5520,-0.001327
63.968,66.5605,-0.001327
63.984,66.5695,-0.001327
63.999,66.5771,-0.001327
64.016,66.5855,-0.001327
64.031,66.5931,-0.001327
64.048,66.6013,-0.001327
64.063,66.6083,-0.001327
64.080,66.6160,-0.001327
64.096,66.6233,-0.001327
64.115,66.6313,-0.001327
64.137,66.6406,-0.001412
64.159,66.6492,-0.001412
64.176,66.6558,-0.001412
64.192,66.6617,-0.001412
64.208,66.6673,-0.001412
64.223,66.6726,-0.001412
64.242,66.6790,-0.001412
64.260,66.6850,-0.001412
64.276,66.6898,-0.001412
64.306,66.6987,-0.001412
64.323,66.7030,-0.001412
64.354,66.7110,-0.001412
64.369,66.7144,-0.001412
64.385,66.7182,-0.001478
64.415,66.7244,-0.001478
64.439,66.7290,-0.001478
64.462,66.7329,-0.001478
64.480,66.7356,-0.001478
64.496,66.7379,-0.001478
64.512,66.7400,-0.001478
64.527,66.7417,-0.001478
64.543,66.7435,-0.001478
64.559,66.7449,-0.001478
64.575,66.7462,-0.001478
64.591,66.7474,-0.001478
64.607,66.7483,-0.001478
64.623,66.7490,-0.001478
64.640,66.7495,-0.001534
64.655,66.7499,-0.001534
64.672,66.7500,-0.001534
64.688,66.7500,-0.001534
64.713,66.7500,-0.001534
64.728,66.7500,-0.001534
64.761,66.7500,-0.001534
64.790,66.7500,-0.001534
64.821,66.7500,-0.001534
64.836,66.7500,-0.001534
64.857,66.7500,-0.001534
64.874,66.7500,-0.001534
64.889,66.7500,-0.001572
64.905,66.7500,-0.001572
64.923,66.7500,-0.001572
64.944,66.7500,-0.001572
64.959,66.7500,-0.001572
64.990,66.7500,-0.001572
65.021,66.7500,-0.001572
65.053,66.7500,-0.001572
65.083,66.7500,-0.001572
65.099,66.7500,-0.001572
65.114,66.7500,-0.001572
65.129,66.7500,-0.001610
65.145,66.7500,-0.001610
65.162,66.7500,-0.001610
65.191,66.7500,-0.001610
65.209,66.7500,-0.001610
65.226,66.7500,-0.001610
65.253,66.7500,-0.001610
65.273,66.7500,-0.001610
65.289,66.7500,-0.001610
65.305,66.7500,-0.001610
65.321,66.7500,-0.001610
65.337,66.7500,-0.001610
65.353,66.7500,-0.001610
65.370,66.7500,-0.001610
65.385,66.7500,-0.001610
65.406,66.7500,-0.001572
65.422,66.7500,-0.001572
65.438,66.7500,-0.001572
65.454,66.7500,-0.001572
65.475,66.7500,-0.001572
65.499,66.7500,-0.001572
65.518,66.7500,-0.001572
65.534,66.7500,-0.001572
65.550,66.7500,-0.001572
65.566,66.7500,-0.001572
65.582,66.7500,-0.001572
65.598,66.7500,-0.001572
65.614,66.7500,-0.001572
65.630,66.7500,-0.001544
65.647,66.7500,-0.001544
65.662,66.7500,-0.001544
65.678,66.7500,-0.001544
65.694,66.7500,-0.001544
65.710,66.7500,-0.001544
65.728,66.7500,-0.001544
65.745,66.7500,-0.001544
65.776,66.7500,-0.001544
65.793,66.7500,-0.001544
65.823,66.7500,-0.001544
65.838,66.7500,-0.001544
65.855,66.7500,-0.001544
65.870,66.7500,-0.001525
65.886,66.7500,-0.001525
65.903,66.7500,-0.001525
65.918,66.7500,-0.001525
65.934,66.7500,-0.001525
65.959,66.7500,-0.001525
65.975,66.7500,-0.001525
65.991,66.7500,-0.001525
66.007,66.7500,-0.001525
66.023,66.7500,-0.001525
66.039,66.7500,-0.001525
66.055,66.7500,-0.001525
66.071,66.7500,-0.001525
66.088,66.7500,-0.001525
66.103,66.7500,-0.001525
66.119,66.7500,-0.001534
66.135,66.7500,-0.001534
66.151,66.7500,-0.001534
66.167,66.7500,-0.001534
66.183,66.7500,-0.001534
66.199,66.7500,-0.001534
66.218,66.7500,-0.001534
66.242,66.7500,-0.001534
66.263,66.7500,-0.001534
66.279,66.7500,-0.001534
66.296,66.7500,-0.001534
66.320,66.7500,-0.001534
66.336,66.7500,-0.001534
66.352,66.7500,-0.001534
66.367,66.7500,-0.001534
66.399,66.7500,-0.001534
66.429,66.7500,-0.001534
66.461,66.7500,-0.001534
66.493,66.7500,-0.001534
66.523,66.7500,-0.001534
66.539,66.7500,-0.001534
66.569,66.7500,-0.001534
66.585,66.7500,-0.001534
66.617,66.7500,-0.001534
66.647,66.7500,-0.001506
66.664,66.7500,-0.001506
66.694,66.7500,-0.001506
66.711,66.7500,-0.001506
66.727,66.7500,-0.001506
66.743,66.7500,-0.001506
66.759,66.7500,-0.001506
66.775,66.7500,-0.001506
66.791,66.7500,-0.001506
66.818,66.7500,-0.001506
66.839,66.7500,-0.001506
66.854,66.7500,-0.001506
66.871,66.7500,-0.001506
66.896,66.7500,-0.001516
66.926,66.7500,-0.001516
66.958,66.7500,-0.001516
66.988,66.7500,-0.001516
67.018,66.7500,-0.001516
67.048,66.7500,-0.001516
67.065,66.7500,-0.001516
67.095,66.7500,-0.001516
67.110,66.7500,-0.001516
67.126,66.7500,-0.001525
67.142,66.7500,-0.001525
67.164,66.7500,-0.001525
67.187,66.7500,-0.001525
67.206,66.7500,-0.001525
67.223,66.7500,-0.001525
67.239,66.7500,-0.001525
67.265,66.7500,-0.001525
67.295,66.7500,-0.001525
67.325,66.7500,-0.001525
67.358,66.7500,-0.001525
67.388,66.7500,-0.001544
67.420,66.7500,-0.001544
67.450,66.7500,-0.001544
67.467,66.7500,-0.001544
67.497,66.7500,-0.001544
67.512,66.7500,-0.001544
67.544,66.7500,-0.001544
67.559,66.7500,-0.001544
67.584,66.7500,-0.001544
67.601,66.7500,-0.001544
67.616,66.7500,-0.001544
67.632,66.7500,-0.001572
67.648,66.7500,-0.001572
67.664,66.7500,-0.001572
67.680,66.7500,-0.001572
67.697,66.7500,-0.001572
67.713,66.7500,-0.001572
67.729,66.7500,-0.001572
67.744,66.7500,-0.001572
67.763,66.7500,-0.001572
67.790,66.7500,-0.001572
67.808,66.7500,-0.001572
67.830,66.7500,-0.001572
67.856,66.7500,-0.001572
67.873,66.7500,-0.001572
67.888,66.7500,-0.001563
67.904,66.7500,-0.001563
67.921,66.7500,-0.001563
67.936,66.7500,-0.001563
67.953,66.7500,-0.001563
67.974,66.7500,-0.001563
68.006,66.7500,-0.001563
68.026,66.7500,-0.001563
68.052,66.7500,-0.001563
68.082,66.7500,-0.001563
68.098,66.7500,-0.001563
68.128,66.7500,-0.001563
68.152,66.7500,-0.001563
68.176,66.7500,-0.001534
68.193,66.7500,-0.001534
68.224,66.7500,-0.001534
68.240,66.7500,-0.001534
68.271,66.7500,-0.001534
68.287,66.7500,-0.001534
68.306,66.7500,-0.001534
68.324,66.7500,-0.001534
68.348,66.7500,-0.001534
68.367,66.7500,-0.001534
68.383,66.7500,-0.001534
68.399,66.7500,-0.001525
68.415,66.7500,-0.001525
68.432,66.7500,-0.001525
68.449,66.7500,-0.001525
68.470,66.7500,-0.001525
68.501,66.7500,-0.001525
68.532,66.7500,-0.001525
68.562,66.7500,-0.001525
68.577,66.7500,-0.001525
68.593,66.7500,-0.001525
68.624,66.7500,-0.001525
68.652,66.7500,-0.001534
68.675,66.7500,-0.001534
68.701,66.7500,-0.001534
68.716,66.7500,-0.001534
68.747,66.7500,-0.001534
68.771,66.7500,-0.001534
68.793,66.7500,-0.001534
68.811,66.7500,-0.001534
68.828,66.7500,-0.001534
68.855,66.7500,-0.001534
68.875,66.7500,-0.001534
68.892,66.7500,-0.001572
68.918,66.7500,-0.001572
68.948,66.7500,-0.001572
68.978,66.7500,-0.001572
69.009,66.7500,-0.001572
69.024,66.7500,-0.001572
69.039,66.7500,-0.001572
69.055,66.7500,-0.001572
69.070,66.7500,-0.001572
69.087,66.7500,-0.001572
69.118,66.7500,-0.001572
69.151,66.7500,-0.001572
69.179,66.7500,-0.001572
69.195,66.7500,-0.001572
69.211,66.7500,-0.001572
69.226,66.7500,-0.001572
69.242,66.7500,-0.001572
69.259,66.7500,-0.001572
69.276,66.7500,-0.001572
69.303,66.7500,-0.001572
69.323,66.7500,-0.001572
69.339,66.7500,-0.001572
69.355,66.7500,-0.001572
69.370,66.7500,-0.001619
69.387,66.7500,-0.001619
69.404,66.7500,-0.001619
69.426,66.7500,-0.001619
69.457,66.7500,-0.001619
69.472,66.7500,-0.001619
69.488,66.7500,-0.001619
69.518,66.7500,-0.001619
69.533,66.7500,-0.001619
69.565,66.7500,-0.001619
69.580,66.7500,-0.001619
69.596,66.7500,-0.001619
69.612,66.7500,-0.001619
69.642,66.7498,-0.001619
69.658,66.7494,-0.001685
69.674,66.7488,-0.001685
69.690,66.7480,-0.001685
69.707,66.7471,-0.001685
69.722,66.7458,-0.001685
69.746,66.7437,-0.001685
69.762,66.7421,-0.001685
69.778,66.7401,-0.001685
69.795,66.7381,-0.001685
69.810,66.7359,-0.001685
69.827,66.7334,-0.001685
69.843,66.7307,-0.001685
69.858,66.7280,-0.001685
69.877,66.7245,-0.001685
69.906,66.7185,-0.001440
69.923,66.7148,-0.001440
69.940,66.7105,-0.001440
69.968,66.7035,-0.001440
69.987,66.6984,-0.001440
70.004,66.6936,-0.001440
70.031,66.6853,-0.001440
70.050,66.6791,-0.001440
70.068,66.6733,-0.001440
70.083,66.6682,-0.001440
70.099,66.6625,-0.001440
70.114,66.6566,-0.001440
70.132,66.6498,-0.001440
70.154,66.6408,-0.000151
70.170,66.6346,-0.000151
70.203,66.6201,-0.000151
70.231,66.6078,-0.000151
70.262,66.5929,-0.000151
70.278,66.5850,-0.000151
70.309,66.5691,-0.000151
70.325,66.5603,-0.000151
70.354,66.5442,-0.000151
70.371,66.5349,-0.000151
70.400,66.5182,-0.000151
70.419,66.5069,-0.000151
70.435,66.4972,-0.000151
70.451,66.4872,-0.000151
70.466,66.4773,-0.000151
70.482,66.4669,-0.000151
70.499,66.4561,-0.000151
70.514,66.4456,-0.000151
70.530,66.4349,-0.000151
70.546,66.4231,-0.000151
70.563,66.4118,-0.000151
70.579,66.4003,-0.000151
70.594,66.3891,-0.000151
70.610,66.3772,-0.000151
70.636,66.3575,-0.000151
70.664,66.3352,-0.001224
70.695,66.3105,-0.001224
70.725,66.2858,-0.001224
70.755,66.2599,-0.001224
70.770,66.2467,-0.001224
70.796,66.2244,-0.001224
70.812,66.2094,-0.001224
70.828,66.1953,-0.001224
70.845,66.1793,-0.001224
70.861,66.1649,-0.001224
70.876,66.1501,-0.001224
70.892,66.1350,-0.001280
70.908,66.1186,-0.001280
70.924,66.1039,-0.001280
70.941,66.0873,-0.001280
70.956,66.0721,-0.001280
70.973,66.0536,-0.001280
71.003,66.0233,-0.001280
71.020,66.0053,-0.001280
71.036,65.9878,-0.001280
71.052,65.9712,-0.001280
71.068,65.9539,-0.001280
71.084,65.9362,-0.001280
71.102,65.9156,-0.001280
71.126,65.8881,-0.001261
71.148,65.8631,-0.001261
71.165,65.8439,-0.001261
71.180,65.8253,-0.001261
71.196,65.8067,-0.001261
71.212,65.7875,-0.001261
71.228,65.7675,-0.001261
71.244,65.7488,-0.001261
71.260,65.7292,-0.001261
71.277,65.7074,-0.001261
71.296,65.6842,-0.001261
71.312,65.6626,-0.001261
71.338,65.6289,-0.001261
71.358,65.6037,-0.001261
71.389,65.5618,-0.001167
71.419,65.5217,-0.001167
71.450,65.4793,-0.001167
71.481,65.4360,-0.001167
71.497,65.4133,-0.001167
71.512,65.3906,-0.001167
71.529,65.3662,-0.001167
71.546,65.3430,-0.001167
71.561,65.3200,-0.001167
71.577,65.2959,-0.001167
71.594,65.2714,-0.001167
71.609,65.2481,-0.001167
71.625,65.2240,-0.001026
71.642,65.1990,-0.001026
71.660,65.1707,-0.001026
71.675,65.1460,-0.001026
71.697,65.1128,-0.001026
71.729,65.0633,-0.001026
71.760,65.0131,-0.001026
71.790,64.9626,-0.001026
71.821,64.9128,-0.001026
71.836,64.8865,-0.001026
71.860,64.8471,-0.001026
71.876,64.8195,-0.001026
71.892,64.7916,-0.000941
71.908,64.7632,-0.000941
71.924,64.7369,-0.000941
71.940,64.7091,-0.000941
71.957,64.6783,-0.000941
71.976,64.6442,-0.000941
71.992,64.6147,-0.000941
72.008,64.5874,-0.000941
72.023,64.5588,-0.000941
72.039,64.5306,-0.000941
72.054,64.5009,-0.000941
72.070,64.4738,-0.000941
72.100,64.4153,-0.000941
72.116,64.3874,-0.000941
72.131,64.3572,-0.000828
72.149,64.3243,-0.000828
72.178,64.2687,-0.000828
72.196,64.2345,-0.000828
72.214,64.1980,-0.000828
72.241,64.1460,-0.000828
72.260,64.1075,-0.000828
72.276,64.0737,-0.000828
72.291,64.0435,-0.000828
72.308,64.0091,-0.000828
72.324,63.9764,-0.000828
72.340,63.9440,-0.000828
72.356,63.9113,-0.000828
72.371,63.8793,-0.000828
72.397,63.8246,-0.000631
72.415,63.7881,-0.000631
72.442,63.7296,-0.000631
72.461,63.6901,-0.000631
72.476,63.6571,-0.000631
72.493,63.6215,-0.000631
72.509,63.5882,-0.000631
72.524,63.5566,-0.000631
72.540,63.5231,-0.000631
72.557,63.4897,-0.000631
72.573,63.4561,-0.000631
72.589,63.4227,-0.000631
72.604,63.3926,-0.000631
72.621,63.3600,-0.000527
72.638,63.3257,-0.000527
72.658,63.2858,-0.000527
72.673,63.2554,-0.000527
72.705,63.1940,-0.000527
72.721,63.1627,-0.000527
72.751,63.1037,-0.000527
72.769,63.0701,-0.000527
72.784,63.0417,-0.000527
72.814,62.9860,-0.000527
72.830,62.9555,-0.000527
72.845,62.9287,-0.000527
72.860,62.9008,-0.000527
72.877,62.8711,-0.000527
72.892,62.8423,-0.000527
72.908,62.8138,-0.000593
72.933,62.7696,-0.000593
72.950,62.7407,-0.000593
72.966,62.7111,-0.000593
72.985,62.6777,-0.000593
73.015,62.6281,-0.000593
73.031,62.6005,-0.000593
73.047,62.5734,-0.000593
73.063,62.5464,-0.000593
73.094,62.4953,-0.000593
73.109,62.4680,-0.000593
73.125,62.4431,-0.000593
73.142,62.4174,-0.000537
73.157,62.3923,-0.000537
73.176,62.3613,-0.000537
73.202,62.3199,-0.000537
73.221,62.2908,-0.000537
73.238,62.2657,-0.000537
73.254,62.2410,-0.000537
73.269,62.2181,-0.000537
73.286,62.1930,-0.000537
73.302,62.1681,-0.000537
73.318,62.1454,-0.000537
73.333,62.1226,-0.000537
73.349,62.0988,-0.000537
73.366,62.0741,-0.000537
73.388,62.0433,-0.000433
73.403,62.0203,-0.000433
73.434,61.9784,-0.000433
73.450,61.9564,-0.000433
73.476,61.9204,-0.000433
73.492,61.8980,-0.000433
73.508,61.8767,-0.000433
73.525,61.8542,-0.000433
73.540,61.8341,-0.000433
73.557,61.8130,-0.000433
73.572,61.7933,-0.000433
73.590,61.7706,-0.000433
73.619,61.7337,-0.000395
73.636,61.7123,-0.000395
73.652,61.6915,-0.000395
73.668,61.6729,-0.000395
73.684,61.6538,-0.000395
73.701,61.6337,-0.000395
73.718,61.6132,-0.000395
73.744,61.5831,-0.000395
73.763,61.5605,-0.000395
73.781,61.5412,-0.000395
73.796,61.5242,-0.000395
73.812,61.5066,-0.000395
73.828,61.4885,-0.000395
73.844,61.4711,-0.000395
73.860,61.4537,-0.000395
73.876,61.4370,-0.000395
73.892,61.4205,-0.000395
73.908,61.4034,-0.000395
73.924,61.3876,-0.000395
73.940,61.3715,-0.000395
73.956,61.3549,-0.000395
73.972,61.3394,-0.000395
73.988,61.3240,-0.000395
74.016,61.2968,-0.000395
74.032,61.2817,-0.000395
74.048,61.2667,-0.000395
74.064,61.2518,-0.000395
74.080,61.2377,-0.000395
74.096,61.2234,-0.000395
74.112,61.2094,-0.000395
74.129,61.1942,-0.000395
74.144,61.1809,-0.000395
74.160,61.1679,-0.000395
74.176,61.1547,-0.000471
74.192,61.1411,-0.000471
74.208,61.1282,-0.000471
74.224,61.1154,-0.000471
74.240,61.1031,-0.000471
74.256,61.0897,-0.000471
74.272,61.0781,-0.000471
74.289,61.0655,-0.000471
74.305,61.0536,-0.000471
74.321,61.0420,-0.000471
74.347,61.0239,-0.000471
74.368,61.0091,-0.000471
74.385,60.9971,-0.000471
74.409,60.9815,-0.000471
74.440,60.9619,-0.000499
74.472,60.9423,-0.000499
74.487,60.9325,-0.000499
74.503,60.9235,-0.000499
74.524,60.9113,-0.000499
74.544,60.9006,-0.000499
74.560,60.8918,-0.000499
74.586,60.8778,-0.000499
74.612,60.8645,-0.000499
74.633,60.8546,-0.000499
74.649,60.8463,-0.000499
74.665,60.8391,-0.000499
74.681,60.8324,-0.000499
74.698,60.8246,-0.000499
74.713,60.8181,-0.000499
74.729,60.8114,-0.000499
74.745,60.8051,-0.000499
74.761,60.7985,-0.000499
74.777,60.7926,-0.000499
74.793,60.7870,-0.000499
74.809,60.7808,-0.000499
74.825,60.7756,-0.000499
74.841,60.7704,-0.000499
74.857,60.7650,-0.000499
74.873,60.7602,-0.000499
74.891,60.7550,-0.000499
74.921,60.7466,-0.000499
74.938,60.7421,-0.000499
74.967,60.7350,-0.000499
74.985,60.7312,-0.000499
75.001,60.7277,-0.000499
75.016,60.7246,-0.000499
75.033,60.7215,-0.000499
75.049,60.7189,-0.000499
75.066,60.7159,-0.000499
75.091,60.7123,-0.000499
75.113,60.7096,-0.000499
75.128,60.7079,-0.000499
75.145,60.7061,-0.000461
75.162,60.7046,-0.000461
75.177,60.7034,-0.000461
75.192,60.7024,-0.000461
75.209,60.7015,-0.000461
75.224,60.7009,-0.000461
75.241,60.7004,-0.000461
75.256,60.7002,-0.000461
75.272,60.7000,-0.000461
75.289,60.7000,-0.000461
75.305,60.7000,-0.000461
75.320,60.7000,-0.000461
75.337,60.7000,-0.000461
75.353,60.7000,-0.000461
75.368,60.7000,-0.000461
75.384,60.7000,-0.000395
75.401,60.7000,-0.000395
75.420,60.7000,-0.000395
75.437,60.7000,-0.000395
75.461,60.7000,-0.000395
75.481,60.7000,-0.000395
75.498,60.7000,-0.000395
75.524,60.7000,-0.000395
75.545,60.7000,-0.000395
75.560,60.7000,-0.000395
75.576,60.7000,-0.000395
75.592,60.7000,-0.000395
75.611,60.7000,-0.000395
75.633,60.7000,-0.000395
75.664,60.7000,-0.000377
75.693,60.7000,-0.000377
75.724,60.7000,-0.000377
75.755,60.7000,-0.000377
75.786,60.7002,-0.000377
75.803,60.7004,-0.000377
75.833,60.7015,-0.000377
75.850,60.7024,-0.000377
75.880,60.7045,-0.000405
75.896,60.7059,-0.000405
75.914,60.7077,-0.000405
75.942,60.7111,-0.000405
75.960,60.7136,-0.000405
75.978,60.7162,-0.000405
76.005,60.7206,-0.000405
76.024,60.7242,-0.000405
76.041,60.7275,-0.000405
76.057,60.7307,-0.000405
76.072,60.7342,-0.000405
76.089,60.7382,-0.000405
76.108,60.7430,-0.000405
76.130,60.7485,-0.000405
76.159,60.7567,-0.000405
76.180,60.7632,-0.000471
76.197,60.7685,-0.000471
76.212,60.7735,-0.000471
76.229,60.7792,-0.000471
76.245,60.7848,-0.000471
76.261,60.7905,-0.000471
76.277,60.7967,-0.000471
76.292,60.8027,-0.000471
76.309,60.8092,-0.000471
76.324,60.8155,-0.000471
76.340,60.8225,-0.000471
76.356,60.8294,-0.000471
76.373,60.8367,-0.000471
76.389,60.8442,-0.000546
76.404,60.8514,-0.000546
76.421,60.8598,-0.000546
76.451,60.8749,-0.000546
76.468,60.8836,-0.000546
76.485,60.8927,-0.000546
76.501,60.9012,-0.000546
76.516,60.9096,-0.000546
76.532,60.9189,-0.000546
76.549,60.9287,-0.000546
76.564,60.9377,-0.000546
76.580,60.9472,-0.000546
76.596,60.9574,-0.000546
76.612,60.9678,-0.000546
76.628,60.9776,-0.000546
76.644,60.9884,-0.000555
76.661,60.9996,-0.000555
76.678,61.0115,-0.000555
76.700,61.0268,-0.000555
76.731,61.0481,-0.000555
76.746,61.0597,-0.000555
76.761,61.0710,-0.000555
76.777,61.0828,-0.000555
76.811,61.1092,-0.000555
76.838,61.1304,-0.000555
76.853,61.1428,-0.000555
76.868,61.1557,-0.000555
76.884,61.1687,-0.000546
76.900,61.1824,-0.000546
76.920,61.2000,-0.000546
76.947,61.2226,-0.000546
76.964,61.2382,-0.000546
76.985,61.2573,-0.000546
77.007,61.2776,-0.000546
77.028,61.2976,-0.000546
77.045,61.3141,-0.000546
77.069,61.3372,-0.000546
77.100,61.3685,-0.000546
77.131,61.3995,-0.000546
77.161,61.4317,-0.000659
77.195,61.4669,-0.000659
77.224,61.4989,-0.000659
77.247,61.5247,-0.000659
77.263,61.5418,-0.000659
77.279,61.5598,-0.000659
77.295,61.5785,-0.000659
77.311,61.5970,-0.000659
77.327,61.6152,-0.000659
77.343,61.6346,-0.000659
77.359,61.6540,-0.000659
77.375,61.6725,-0.000734
77.391,61.6925,-0.000734
77.407,61.7122,-0.000734
77.423,61.7320,-0.000734
77.439,61.7524,-0.000734
77.455,61.7726,-0.000734
77.471,61.7929,-0.000734
77.487,61.8138,-0.000734
77.503,61.8349,-0.000734
77.518,61.8548,-0.000734
77.535,61.8773,-0.000734
77.551,61.8982,-0.000734
77.567,61.9208,-0.000734
77.582,61.9410,-0.000734
77.605,61.9725,-0.000734
77.626,62.0022,-0.000734
77.646,62.0307,-0.000584
77.663,62.0544,-0.000584
77.679,62.0767,-0.000584
77.694,62.0992,-0.000584
77.711,62.1227,-0.000584
77.727,62.1476,-0.000584
77.749,62.1805,-0.000584
77.780,62.2279,-0.000584
77.810,62.2729,-0.000584
77.826,62.2971,-0.000584
77.841,62.3219,-0.000584
77.856,62.3453,-0.000584
77.887,62.3945,-0.000480
77.903,62.4194,-0.000480
77.919,62.4457,-0.000480
77.934,62.4711,-0.000480
77.954,62.5033,-0.000480
77.980,62.5465,-0.000480
77.999,62.5773,-0.000480
78.015,62.6046,-0.000480
78.030,62.6311,-0.000480
78.047,62.6589,-0.000480
78.062,62.6860,-0.000480
78.078,62.7146,-0.000480
78.095,62.7425,-0.000480
78.110,62.7701,-0.000480
78.127,62.7993,-0.000546
78.143,62.8284,-0.000546
78.159,62.8559,-0.000546
78.175,62.8857,-0.000546
78.190,62.9144,-0.000546
78.206,62.9441,-0.000546
78.222,62.9731,-0.000546
78.238,63.0029,-0.000546
78.255,63.0337,-0.000546
78.271,63.0636,-0.000546
78.286,63.0939,-0.000546
78.302,63.1237,-0.000546
78.318,63.1543,-0.000546
78.335,63.1868,-0.000546
78.350,63.2172,-0.000546
78.366,63.2481,-0.000546
78.382,63.2796,-0.000546
78.398,63.3114,-0.000546
78.415,63.3445,-0.000584
78.430,63.3751,-0.000584
78.446,63.4088,-0.000584
78.462,63.4400,-0.000584
78.479,63.4738,-0.000584
78.495,63.5076,-0.000584
78.511,63.5407,-0.000584
78.527,63.5737,-0.000584
78.544,63.6085,-0.000584
78.569,63.6610,-0.000584
78.584,63.6950,-0.000584
78.599,63.7268,-0.000584
78.631,63.7937,-0.000631
78.661,63.8558,-0.000631
78.692,63.9185,-0.000631
78.707,63.9497,-0.000631
78.723,63.9831,-0.000631
78.738,64.0154,-0.000631
78.774,64.0869,-0.000631
78.800,64.1396,-0.000631
78.817,64.1703,-0.000631
78.846,64.2275,-0.000631
78.874,64.2822,-0.000631
78.891,64.3124,-0.000631
78.906,64.3415,-0.000668
78.922,64.3715,-0.000668
78.938,64.4013,-0.000668
78.955,64.4333,-0.000668
78.970,64.4609,-0.000668
78.987,64.4917,-0.000668
79.003,64.5237,-0.000668
79.022,64.5569,-0.000668
79.047,64.6003,-0.000668
79.068,64.6366,-0.000668
79.093,64.6827,-0.000668
79.114,64.7184,-0.000668
79.130,64.7458,-0.000668
79.146,64.7732,-0.000668
79.162,64.8001,-0.000706
79.178,64.8273,-0.000706
79.195,64.8553,-0.000706
79.210,64.8809,-0.000706
79.226,64.9082,-0.000706
79.242,64.9336,-0.000706
79.258,64.9593,-0.000706
79.274,64.9853,-0.000706
79.290,65.0110,-0.000706
79.306,65.0370,-0.000706
79.322,65.0636,-0.000706
79.338,65.0870,-0.000706
79.354,65.1132,-0.000706
79.372,65.1390,-0.000706
79.387,65.1630,-0.000706
79.417,65.2074,-0.000819
79.440,65.2434,-0.000819
79.462,65.2761,-0.000819
79.482,65.3047,-0.000819
79.499,65.3295,-0.000819
79.524,65.3648,-0.000819
79.554,65.4072,-0.000819
79.583,65.4478,-0.000819
79.614,65.4897,-0.000819
79.645,65.5310,-0.000979
79.660,65.5510,-0.000979
79.677,65.5733,-0.000979
79.706,65.6122,-0.000979
79.722,65.6316,-0.000979
79.740,65.6538,-0.000979
79.769,65.6906,-0.000979
79.786,65.7113,-0.000979
79.805,65.7344,-0.000979
79.831,65.7662,-0.000979
79.850,65.7880,-0.000979
79.866,65.8075,-0.000979
79.882,65.8254,-0.000979
79.898,65.8442,-0.001158
79.914,65.8614,-0.001158
79.930,65.8794,-0.001158
79.958,65.9106,-0.001158
79.974,65.9285,-0.001158
79.991,65.9461,-0.001158
80.007,65.9632,-0.001158
80.022,65.9785,-0.001158
80.038,65.9952,-0.001158
80.054,66.0117,-0.001158
80.070,66.0285,-0.001158
80.087,66.0448,-0.001158
80.111,66.0684,-0.001158
80.140,66.0978,-0.001158
80.171,66.1264,-0.001224
80.187,66.1408,-0.001224
80.218,66.1692,-0.001224
80.249,66.1964,-0.001224
80.280,66.2233,-0.001224
80.296,66.2366,-0.001224
80.327,66.2620,-0.001224
80.342,66.2744,-0.001224
80.358,66.2876,-0.001224
80.376,66.3013,-0.001224
80.403,66.3219,-0.001290
80.422,66.3363,-0.001290
80.439,66.3487,-0.001290
80.454,66.3599,-0.001290
80.470,66.3708,-0.001290
80.493,66.3874,-0.001290
80.509,66.3979,-0.001290
80.525,66.4083,-0.001290
80.541,66.4195,-0.001290
80.560,66.4322,-0.001290
80.588,66.4492,-0.001290
80.605,66.4592,-0.001290
80.621,66.4691,-0.001290
80.638,66.4787,-0.001290
80.653,66.4872,-0.001346
80.670,66.4969,-0.001346
80.690,66.5081,-0.001346
80.713,66.5205,-0.001346
80.733,66.5301,-0.001346
80.749,66.5388,-0.001346
80.765,66.5463,-0.001346
80.780,66.5536,-0.001346
80.797,66.5613,-0.001346
80.813,66.5687,-0.001346
80.829,66.5757,-0.001346
80.845,66.5824,-0.001346
80.861,66.5891,-0.001346
80.877,66.5956,-0.001346
80.893,66.6020,-0.001365
80.908,66.6077,-0.001365
80.925,66.6137,-0.001365
80.940,66.6193,-0.001365
80.956,66.6248,-0.001365
80.973,66.6302,-0.001365
80.989,66.6353,-0.001365
81.004,66.6401,-0.001365
81.021,66.6450,-0.001365
81.050,66.6533,-0.001365
81.066,66.6574,-0.001365
81.082,66.6612,-0.001365
81.099,66.6651,-0.001365
81.115,66.6687,-0.001365
81.130,66.6721,-0.001365
81.147,66.6752,-0.001468
81.163,66.6783,-0.001468
81.179,66.6812,-0.001468
81.195,66.6838,-0.001468
81.210,66.6860,-0.001468
81.226,66.6883,-0.001468
81.243,66.6905,-0.001468
81.259,66.6922,-0.001468
81.274,66.6939,-0.001468
81.291,66.6953,-0.001468
81.307,66.6966,-0.001468
81.323,66.6977,-0.001468
81.338,66.6984,-0.001468
81.354,66.6992,-0.001468
81.371,66.6997,-0.001468
81.386,66.6999,-0.001685
81.402,66.7001,-0.001685
81.419,66.7001,-0.001685
81.435,66.7001,-0.001685
81.456,66.7001,-0.001685
81.486,66.7001,-0.001685
81.516,66.7001,-0.001685
81.532,66.7001,-0.001685
81.548,66.7001,-0.001685
81.579,66.7001,-0.001685
81.606,66.7001,-0.001685
81.622,66.7001,-0.001685
81.637,66.7001,-0.001807
81.653,66.7001,-0.001807
81.670,66.7001,-0.001807
81.686,66.7001,-0.001807
81.701,66.7001,-0.001807
81.717,66.7001,-0.001807
81.734,66.7001,-0.001807
81.750,66.7001,-0.001807
81.766,66.7001,-0.001807
81.782,66.7001,-0.001807
81.803,66.7001,-0.001807
81.826,66.7001,-0.001807
81.846,66.7001,-0.001807
81.862,66.7001,-0.001807
81.878,66.7001,-0.001807
81.893,66.7001,-0.001789
81.909,66.7001,-0.001789
81.927,66.7001,-0.001789
81.950,66.7001,-0.001789
81.980,66.7001,-0.001789
82.011,66.7001,-0.001789
82.026,66.7001,-0.001789
82.057,66.7001,-0.001789
82.087,66.7001,-0.001789
82.118,66.7001,-0.001789
82.149,66.7001,-0.001789
82.166,66.7001,-0.001789
82.181,66.7001,-0.001789
82.197,66.7001,-0.001789
82.214,66.7001,-0.001789
82.234,66.7001,-0.001789
82.249,66.7001,-0.001789
82.271,66.7001,-0.001789
82.286,66.7001,-0.001789
82.318,66.7001,-0.001789
82.348,66.7001,-0.001789
82.364,66.7001,-0.001789
82.395,66.7001,-0.001732
82.411,66.7001,-0.001732
82.427,66.7001,-0.001732
82.458,66.7001,-0.001732
82.474,66.7001,-0.001732
82.490,66.7001,-0.001732
82.505,66.7001,-0.001732
82.521,66.7001,-0.001732
82.552,66.7001,-0.001732
82.567,66.7001,-0.001732
82.599,66.7001,-0.001732
82.615,66.7001,-0.001732
82.646,66.7001,-0.001779
82.676,66.7001,-0.001779
82.694,66.7001,-0.001779
82.709,66.7001,-0.001779
82.729,66.7001,-0.001779
82.755,66.7001,-0.001779
82.773,66.7001,-0.001779
82.789,66.7001,-0.001779
82.805,66.7001,-0.001779
82.822,66.7001,-0.001779
82.837,66.7001,-0.001779
82.853,66.7001,-0.001779
82.869,66.7001,-0.001779
82.885,66.7001,-0.001836
82.901,66.7001,-0.001836
82.917,66.7001,-0.001836
82.933,66.7001,-0.001836
82.949,66.7001,-0.001836
82.965,66.7001,-0.001836
82.981,66.7001,-0.001836
82.997,66.7001,-0.001836
83.013,66.7001,-0.001836
83.029,66.7001,-0.001836
83.045,66.7001,-0.001836
83.061,66.7001,-0.001836
83.077,66.7001,-0.001836
83.093,66.7001,-0.001836
83.109,66.7001,-0.001836
83.125,66.7001,-0.001817
83.141,66.7001,-0.001817
83.158,66.7001,-0.001817
83.182,66.7001,-0.001817
83.197,66.7001,-0.001817
83.213,66.7001,-0.001817
83.229,66.7001,-0.001817
83.245,66.7001,-0.001817
83.261,66.7001,-0.001817
83.276,66.7001,-0.001817
83.293,66.7001,-0.001817
83.309,66.7001,-0.001817
83.326,66.7001,-0.001817
83.357,66.7001,-0.001817
83.373,66.7001,-0.001817
83.389,66.7001,-0.001817
83.406,66.7001,-0.001807
83.422,66.7001,-0.001807
83.444,66.7001,-0.001807
83.467,66.7001,-0.001807
83.484,66.7001,-0.001807
83.501,66.7001,-0.001807
83.528,66.7001,-0.001807
83.549,66.7001,-0.001807
83.564,66.7001,-0.001807
83.580,66.7001,-0.001807
83.597,66.7001,-0.001807
83.613,66.7001,-0.001807
83.629,66.7001,-0.001807
83.644,66.7001,-0.001807
83.660,66.7001,-0.001760
83.677,66.7001,-0.001760
83.693,66.7001,-0.001760
83.709,66.7001,-0.001760
83.725,66.7001,-0.001760
83.740,66.7001,-0.001760
83.756,66.7001,-0.001760
83.773,66.7001,-0.001760
83.788,66.7001,-0.001760
83.804,66.7001,-0.001760
83.820,66.7001,-0.001760
83.837,66.7001,-0.001760
83.853,66.7001,-0.001760
83.869,66.7001,-0.001760
83.884,66.7001,-0.001760
83.900,66.7001,-0.001798
83.916,66.7001,-0.001798
83.939,66.7001,-0.001798
83.962,66.7001,-0.001798
83.981,66.7001,-0.001798
83.997,66.7001,-0.001798
84.012,66.7001,-0.001798
84.028,66.7001,-0.001798
84.045,66.7001,-0.001798
84.061,66.7001,-0.001798
84.077,66.7001,-0.001798
84.092,66.7001,-0.001798
84.108,66.7001,-0.001798
84.125,66.7001,-0.001798
84.141,66.7001,-0.001779
84.156,66.7001,-0.001779
84.173,66.7001,-0.001779
84.189,66.7001,-0.001779
84.204,66.7001,-0.001779
84.221,66.7001,-0.001779
84.237,66.7001,-0.001779
84.252,66.7001,-0.001779
84.268,66.7001,-0.001779
84.284,66.7001,-0.001779
84.301,66.7001,-0.001779
84.317,66.7001,-0.001779
84.332,66.7001,-0.001779
84.349,66.7001,-0.001779
84.366,66.7001,-0.001779
84.382,66.7001,-0.001779
84.409,66.7001,-0.001760
84.428,66.7001,-0.001760
84.444,66.7001,-0.001760
84.460,66.7001,-0.001760
84.477,66.7001,-0.001760
84.493,66.7001,-0.001760
84.508,66.7001,-0.001760
84.524,66.7001,-0.001760
84.540,66.7001,-0.001760
84.557,66.7001,-0.001760
84.572,66.7001,-0.001760
84.588,66.7001,-0.001760
84.604,66.7001,-0.001760
84.621,66.7001,-0.001760
84.636,66.7001,-0.001807
84.653,66.7001,-0.001807
84.668,66.7001,-0.001807
84.685,66.7001,-0.001807
84.700,66.7001,-0.001807
84.716,66.7001,-0.001807
84.732,66.7001,-0.001807
84.759,66.7001,-0.001807
84.776,66.7001,-0.001807
84.791,66.7001,-0.001807
84.808,66.7001,-0.001807
84.823,66.7001,-0.001807
84.839,66.7001,-0.001807
84.856,66.7001,-0.001807
84.874,66.7001,-0.001807
84.893,66.7001,-0.001807
84.924,66.7001,-0.001779
84.954,66.7001,-0.001779
84.984,66.7001,-0.001779
85.001,66.7001,-0.001779
85.031,66.7001,-0.001779
85.051,66.7001,-0.001779
85.077,66.7001,-0.001779
85.095,66.7001,-0.001779
85.113,66.7001,-0.001779
85.140,66.7001,-0.001741
85.159,66.7001,-0.001741
85.176,66.7001,-0.001741
85.191,66.7001,-0.001741
85.207,66.7001,-0.001741
85.224,66.7001,-0.001741
85.240,66.7001,-0.001741
85.256,66.7001,-0.001741
85.278,66.7001,-0.001741
85.293,66.7001,-0.001741
85.314,66.7001,-0.001741
85.331,66.7001,-0.001741
85.355,66.7001,-0.001741
85.386,66.7001,-0.001741
85.416,66.7001,-0.001845
85.447,66.7001,-0.001845
85.478,66.7001,-0.001845
85.508,66.7001,-0.001845
85.539,66.7001,-0.001845
85.558,66.7001,-0.001845
85.585,66.7001,-0.001845
85.602,66.7001,-0.001845
85.618,66.7001,-0.001845
85.634,66.6998,-0.001845
85.650,66.6993,-0.001930
85.666,66.6987,-0.001930
85.682,66.6978,-0.001930
85.698,66.6968,-0.001930
85.714,66.6957,-0.001930
85.730,66.6942,-0.001930
85.746,66.6926,-0.001930
85.762,66.6909,-0.001930
85.778,66.6889,-0.001930
85.794,66.6867,-0.001930
85.810,66.6843,-0.001930
85.826,66.6817,-0.001930
85.842,66.6790,-0.001930
85.866,66.6745,-0.001930
85.886,66.6703,-0.001930
85.912,66.6645,-0.001638
85.929,66.6605,-0.001638
85.945,66.6565,-0.001638
85.961,66.6524,-0.001638
85.977,66.6481,-0.001638
85.995,66.6429,-0.001638
86.019,66.6354,-0.001638
86.035,66.6302,-0.001638
86.057,66.6232,-0.001638
86.073,66.6176,-0.001638
86.089,66.6119,-0.001638
86.105,66.6059,-0.001638
86.122,66.5993,-0.001638
86.137,66.5933,-0.001638
86.153,66.5871,-0.000273
86.169,66.5801,-0.000273
86.185,66.5732,-0.000273
86.200,66.5662,-0.000273
86.216,66.5590,-0.000273
86.233,66.5515,-0.000273
86.249,66.5434,-0.000273
86.265,66.5357,-0.000273
86.281,66.5278,-0.000273
86.298,66.5189,-0.000273
86.313,66.5105,-0.000273
86.328,66.5024,-0.000273
86.344,66.4936,-0.000273
86.362,66.4838,-0.000273
86.377,66.4750,-0.000273
86.392,66.4659,-0.000273
86.421,66.4488,-0.000160
86.437,66.4387,-0.000160
86.452,66.4289,-0.000160
86.483,66.4087,-0.000160
86.500,66.3976,-0.000160
86.515,66.3870,-0.000160
86.532,66.3756,-0.000160
86.547,66.3646,-0.000160
86.564,66.3529,-0.000160
86.579,66.3414,-0.000160
86.597,66.3284,-0.000160
86.617,66.3131,-0.000160
86.638,66.2964,-0.000160
86.659,66.2801,-0.001205
86.676,66.2668,-0.001205
86.692,66.2538,-0.001205
86.707,66.2410,-0.001205
86.724,66.2272,-0.001205
86.740,66.2129,-0.001205
86.755,66.2000,-0.001205
86.772,66.1857,-0.001205
86.788,66.1713,-0.001205
86.804,66.1568,-0.001205
86.820,66.1427,-0.001205
86.835,66.1282,-0.001205
86.852,66.1118,-0.001205
86.869,66.0966,-0.001205
86.884,66.0813,-0.001205
86.900,66.0665,-0.001280
86.916,66.0508,-0.001280
86.933,66.0336,-0.001280
86.950,66.0166,-0.001280
86.978,65.9875,-0.001280
86.994,65.9707,-0.001280
87.009,65.9545,-0.001280
87.026,65.9361,-0.001280
87.042,65.9196,-0.001280
87.057,65.9027,-0.001280
87.074,65.8845,-0.001280
87.089,65.8675,-0.001280
87.105,65.8493,-0.001280
87.121,65.8309,-0.001280
87.138,65.8123,-0.001186
87.154,65.7934,-0.001186
87.169,65.7747,-0.001186
87.185,65.7561,-0.001186
87.202,65.7356,-0.001186
87.217,65.7174,-0.001186
87.238,65.6917,-0.001186
87.259,65.6656,-0.001186
87.290,65.6258,-0.001186
87.320,65.5876,-0.001186
87.336,65.5667,-0.001186
87.368,65.5254,-0.001186
87.399,65.4836,-0.001111
87.414,65.4617,-0.001111
87.430,65.4408,-0.001111
87.446,65.4190,-0.001111
87.461,65.3974,-0.001111
87.492,65.3538,-0.001111
87.523,65.3093,-0.001111
87.553,65.2637,-0.001111
87.569,65.2414,-0.001111
87.585,65.2178,-0.001111
87.603,65.1894,-0.001111
87.622,65.1604,-0.001111
87.646,65.1246,-0.001045
87.666,65.0939,-0.001045
87.681,65.0693,-0.001045
87.698,65.0440,-0.001045
87.713,65.0197,-0.001045
87.730,64.9930,-0.001045
87.745,64.9669,-0.001045
87.761,64.9418,-0.001045
87.777,64.9157,-0.001045
87.793,64.8886,-0.001045
87.809,64.8618,-0.001045
87.825,64.8365,-0.001045
87.841,64.8088,-0.001045
87.857,64.7807,-0.001045
87.874,64.7533,-0.001045
87.889,64.7275,-0.000885
87.905,64.6983,-0.000885
87.922,64.6698,-0.000885
87.942,64.6351,-0.000885
87.957,64.6062,-0.000885
87.973,64.5774,-0.000885
87.989,64.5499,-0.000885
88.019,64.4973,-0.000885
88.034,64.4673,-0.000885
88.065,64.4102,-0.000885
88.081,64.3811,-0.000885
88.097,64.3507,-0.000885
88.113,64.3200,-0.000885
88.129,64.2909,-0.000762
88.145,64.2596,-0.000762
88.161,64.2294,-0.000762
88.177,64.1979,-0.000762
88.193,64.1661,-0.000762
88.209,64.1359,-0.000762
88.227,64.1000,-0.000762
88.251,64.0510,-0.000762
88.273,64.0080,-0.000762
88.289,63.9750,-0.000762
88.305,63.9424,-0.000762
88.321,63.9104,-0.000762
88.338,63.8742,-0.000762
88.362,63.8251,-0.000762
88.389,63.7679,-0.000678
88.405,63.7343,-0.000678
88.436,63.6683,-0.000678
88.451,63.6361,-0.000678
88.483,63.5703,-0.000678
88.512,63.5067,-0.000678
88.529,63.4731,-0.000678
88.545,63.4394,-0.000678
88.561,63.4065,-0.000678
88.587,63.3537,-0.000678
88.603,63.3208,-0.000678
88.619,63.2902,-0.000602
88.635,63.2584,-0.000602
88.651,63.2254,-0.000602
88.667,63.1949,-0.000602
88.684,63.1628,-0.000602
88.700,63.1305,-0.000602
88.717,63.0967,-0.000602
88.742,63.0488,-0.000602
88.763,63.0106,-0.000602
88.779,62.9792,-0.000602
88.795,62.9503,-0.000602
88.811,62.9209,-0.000602
88.827,62.8905,-0.000602
88.843,62.8605,-0.000602
88.859,62.8316,-0.000602
88.875,62.8039,-0.000593
88.891,62.7751,-0.000593
88.907,62.7451,-0.000593
88.923,62.7179,-0.000593
88.939,62.6893,-0.000593
88.955,62.6610,-0.000593
88.971,62.6326,-0.000593
88.987,62.6064,-0.000593
89.003,62.5783,-0.000593
89.019,62.5512,-0.000593
89.035,62.5233,-0.000593
89.051,62.4969,-0.000593
89.067,62.4700,-0.000593
89.083,62.4448,-0.000593
89.099,62.4181,-0.000593
89.115,62.3921,-0.000593
89.142,62.3473,-0.000527
89.158,62.3219,-0.000527
89.173,62.2978,-0.000527
89.189,62.2728,-0.000527
89.206,62.2477,-0.000527
89.221,62.2219,-0.000527
89.238,62.1981,-0.000527
89.254,62.1736,-0.000527
89.270,62.1484,-0.000527
89.285,62.1259,-0.000527
89.302,62.1021,-0.000527
89.318,62.0784,-0.000527
89.334,62.0533,-0.000527
89.349,62.0319,-0.000527
89.366,62.0075,-0.000527
89.381,61.9859,-0.000424
89.397,61.9622,-0.000424
89.414,61.9403,-0.000424
89.430,61.9180,-0.000424
89.447,61.8951,-0.000424
89.462,61.8724,-0.000424
89.487,61.8408,-0.000424
89.518,61.7994,-0.000424
89.533,61.7791,-0.000424
89.548,61.7588,-0.000424
89.566,61.7365,-0.000424
89.596,61.6984,-0.000424
89.611,61.6792,-0.000424
89.627,61.6590,-0.000424
89.657,61.6223,-0.000424
89.688,61.5855,-0.000424
89.719,61.5477,-0.000424
89.749,61.5138,-0.000424
89.767,61.4932,-0.000424
89.782,61.4766,-0.000424
89.798,61.4592,-0.000424
89.815,61.4400,-0.000424
89.843,61.4095,-0.000424
89.862,61.3904,-0.000424
89.877,61.3730,-0.000424
89.893,61.3570,-0.000424
89.910,61.3406,-0.000452
89.925,61.3244,-0.000452
89.942,61.3078,-0.000452
89.958,61.2918,-0.000452
89.983,61.2665,-0.000452
90.006,61.2455,-0.000452
90.021,61.2310,-0.000452
90.037,61.2162,-0.000452
90.054,61.2010,-0.000452
90.070,61.1861,-0.000452
90.086,61.1718,-0.000452
90.101,61.1584,-0.000452
90.117,61.1442,-0.000452
90.134,61.1304,-0.000452
90.150,61.1164,-0.000452
90.171,61.0979,-0.000489
90.203,61.0730,-0.000489
90.234,61.0482,-0.000489
90.250,61.0364,-0.000489
90.266,61.0244,-0.000489
90.281,61.0126,-0.000489
90.297,61.0007,-0.000489
90.327,60.9792,-0.000489
90.357,60.9584,-0.000489
90.374,60.9466,-0.000489
90.404,60.9274,-0.000508
90.421,60.9165,-0.000508
90.437,60.9064,-0.000508
90.453,60.8966,-0.000508
90.470,60.8860,-0.000508
90.485,60.8775,-0.000508
90.503,60.8671,-0.000508
90.528,60.8525,-0.000508
90.548,60.8416,-0.000508
90.566,60.8323,-0.000508
90.590,60.8200,-0.000508
90.621,60.8046,-0.000508
90.652,60.7900,-0.000508
90.667,60.7831,-0.000433
90.683,60.7763,-0.000433
90.698,60.7695,-0.000433
90.729,60.7568,-0.000433
90.745,60.7505,-0.000433
90.760,60.7447,-0.000433
90.775,60.7392,-0.000433
90.791,60.7335,-0.000433
90.808,60.7272,-0.000433
90.837,60.7178,-0.000433
90.853,60.7127,-0.000433
90.870,60.7076,-0.000433
90.900,60.6992,-0.000433
90.917,60.6946,-0.000433
90.933,60.6905,-0.000433
90.949,60.6867,-0.000433
90.966,60.6827,-0.000433
90.994,60.6769,-0.000433
91.013,60.6731,-0.000433
91.029,60.6703,-0.000433
91.045,60.6676,-0.000433
91.061,60.6649,-0.000433
91.077,60.6627,-0.000433
91.093,60.6606,-0.000433
91.109,60.6587,-0.000433
91.126,60.6569,-0.000433
91.141,60.6554,-0.000452
91.157,60.6540,-0.000452
91.173,60.6529,-0.000452
91.189,60.6519,-0.000452
91.205,60.6512,-0.000452
91.221,60.6507,-0.000452
91.237,60.6503,-0.000452
91.253,60.6501,-0.000452
91.269,60.6501,-0.000452
91.298,60.6501,-0.000452
91.314,60.6501,-0.000452
91.330,60.6501,-0.000452
91.346,60.6501,-0.000452
91.370,60.6501,-0.000452
91.395,60.6501,-0.000386
91.411,60.6501,-0.000386
91.442,60.6501,-0.000386
91.458,60.6501,-0.000386
91.475,60.6501,-0.000386
91.491,60.6501,-0.000386
91.520,60.6501,-0.000386
91.543,60.6501,-0.000386
91.567,60.6501,-0.000386
91.586,60.6501,-0.000386
91.603,60.6501,-0.000386
91.618,60.6501,-0.000386
91.634,60.6501,-0.000311
91.650,60.6501,-0.000311
91.666,60.6501,-0.000311
91.683,60.6501,-0.000311
91.705,60.6501,-0.000311
91.740,60.6501,-0.000311
91.762,60.6501,-0.000311
91.778,60.6501,-0.000311
91.794,60.6501,-0.000311
91.810,60.6501,-0.000311
91.841,60.6501,-0.000311
91.857,60.6501,-0.000311
91.873,60.6503,-0.000320
91.889,60.6508,-0.000320
91.906,60.6514,-0.000320
91.922,60.6523,-0.000320
91.952,60.6544,-0.000320
91.971,60.6560,-0.000320
91.999,60.6590,-0.000320
92.017,60.6612,-0.000320
92.033,60.6635,-0.000320
92.049,60.6658,-0.000320
92.065,60.6684,-0.000320
92.081,60.6710,-0.000320
92.098,60.6744,-0.000320
92.124,60.6796,-0.000527
92.145,60.6842,-0.000527
92.160,60.6878,-0.000527
92.178,60.6920,-0.000527
92.201,60.6981,-0.000527
92.218,60.7028,-0.000527
92.248,60.7116,-0.000527
92.279,60.7214,-0.000527
92.309,60.7317,-0.000527
92.325,60.7374,-0.000527
92.341,60.7431,-0.000527
92.364,60.7523,-0.000527
92.380,60.7586,-0.000527
92.397,60.7653,-0.000537
92.413,60.7721,-0.000537
92.428,60.7789,-0.000537
92.444,60.7861,-0.000537
92.461,60.7936,-0.000537
92.476,60.8010,-0.000537
92.493,60.8091,-0.000537
92.509,60.8169,-0.000537
92.526,60.8254,-0.000537
92.542,60.8339,-0.000537
92.557,60.8419,-0.000537
92.572,60.8502,-0.000537
92.588,60.8594,-0.000537
92.605,60.8686,-0.000537
92.621,60.8779,-0.000452
92.636,60.8871,-0.000452
92.658,60.9007,-0.000452
92.680,60.9141,-0.000452
92.700,60.9269,-0.000452
92.716,60.9376,-0.000452
92.733,60.9490,-0.000452
92.758,60.9653,-0.000452
92.789,60.9873,-0.000452
92.820,61.0099,-0.000452
92.851,61.0332,-0.000452
92.867,61.0453,-0.000452
92.898,61.0698,-0.000555
92.928,61.0943,-0.000555
92.959,61.1201,-0.000555
92.990,61.1462,-0.000555
93.020,61.1729,-0.000555
93.036,61.1877,-0.000555
93.052,61.2016,-0.000555
93.071,61.2191,-0.000555
93.100,61.2459,-0.000555
93.116,61.2619,-0.000555
93.134,61.2795,-0.000555
93.162,61.3061,-0.000593
93.180,61.3249,-0.000593
93.196,61.3412,-0.000593
93.213,61.3581,-0.000593
93.229,61.3750,-0.000593
93.244,61.3914,-0.000593
93.261,61.4093,-0.000593
93.276,61.4261,-0.000593
93.292,61.4426,-0.000593
93.309,61.4614,-0.000593
93.324,61.4783,-0.000593
93.341,61.4966,-0.000593
93.356,61.5143,-0.000593
93.373,61.5341,-0.000593
93.389,61.5520,-0.000593
93.406,61.5716,-0.000593
93.424,61.5931,-0.000612
93.445,61.6197,-0.000612
93.462,61.6395,-0.000612
93.477,61.6583,-0.000612
93.493,61.6780,-0.000612
93.510,61.6991,-0.000612
93.525,61.7190,-0.000612
93.541,61.7390,-0.000612
93.557,61.7597,-0.000612
93.574,61.7809,-0.000612
93.589,61.8017,-0.000612
93.605,61.8232,-0.000612
93.621,61.8444,-0.000612
93.637,61.8660,-0.000612
93.653,61.8873,-0.000584
93.669,61.9090,-0.000584
93.686,61.9335,-0.000584
93.702,61.9567,-0.000584
93.718,61.9775,-0.000584
93.733,61.9994,-0.000584
93.750,62.0242,-0.000584
93.766,62.0472,-0.000584
93.795,62.0894,-0.000584
93.814,62.1175,-0.000584
93.842,62.1604,-0.000584
93.861,62.1888,-0.000584
93.877,62.2140,-0.000584
93.893,62.2374,-0.000584
93.909,62.2627,-0.000471
93.925,62.2872,-0.000471
93.941,62.3141,-0.000471
93.957,62.3385,-0.000471
93.973,62.3638,-0.000471
93.996,62.4025,-0.000471
94.012,62.4284,-0.000471
94.028,62.4545,-0.000471
94.044,62.4800,-0.000471
94.060,62.5073,-0.000471
94.076,62.5347,-0.000471
94.092,62.5608,-0.000471
94.108,62.5889,-0.000471
94.124,62.6170,-0.000471
94.140,62.6434,-0.000471
94.156,62.6726,-0.000433
94.173,62.7018,-0.000433
94.189,62.7306,-0.000433
94.205,62.7578,-0.000433
94.220,62.7849,-0.000433
94.235,62.8134,-0.000433
94.252,62.8439,-0.000433
94.268,62.8732,-0.000433
94.284,62.9011,-0.000433
94.300,62.9306,-0.000433
94.316,62.9614,-0.000433
94.332,62.9908,-0.000433
94.348,63.0225,-0.000433
94.365,63.0531,-0.000433
94.380,63.0832,-0.000433
94.396,63.1140,-0.000537
94.412,63.1437,-0.000537
94.428,63.1762,-0.000537
94.444,63.2059,-0.000537
94.460,63.2376,-0.000537
94.476,63.2696,-0.000537
94.492,63.3026,-0.000537
94.508,63.3348,-0.000537
94.524,63.3664,-0.000537
94.548,63.4169,-0.000537
94.564,63.4482,-0.000537
94.580,63.4803,-0.000537
94.595,63.5135,-0.000537
94.612,63.5480,-0.000537
94.628,63.5826,-0.000537
94.644,63.6147,-0.000584
94.661,63.6516,-0.000584
94.690,63.7129,-0.000584
94.708,63.7509,-0.000584
94.725,63.7861,-0.000584
94.745,63.8293,-0.000584
94.768,63.8739,-0.000584
94.788,63.9160,-0.000584
94.804,63.9488,-0.000584
94.820,63.9813,-0.000584
94.836,64.0120,-0.000584
94.852,64.0445,-0.000584
94.868,64.0763,-0.000584
94.884,64.1085,-0.000584
94.900,64.1382,-0.000527
94.916,64.1699,-0.000527
94.933,64.2025,-0.000527
94.948,64.2312,-0.000527
94.964,64.2621,-0.000527
94.979,64.2919,-0.000527
94.996,64.3223,-0.000527
95.012,64.3524,-0.000527
95.028,64.3823,-0.000527
95.044,64.4111,-0.000527
95.060,64.4415,-0.000527
95.075,64.4695,-0.000527
95.105,64.5253,-0.000527
95.122,64.5541,-0.000527
95.139,64.5835,-0.000612
95.169,64.6359,-0.000612
95.186,64.6667,-0.000612
95.201,64.6927,-0.000612
95.218,64.7205,-0.000612
95.234,64.7498,-0.000612
95.250,64.7747,-0.000612
95.266,64.8020,-0.000612
95.281,64.8277,-0.000612
95.298,64.8557,-0.000612
95.313,64.8808,-0.000612
95.329,64.9064,-0.000612
95.345,64.9325,-0.000612
95.362,64.9593,-0.000612
95.377,64.9833,-0.000612
95.393,65.0089,-0.000762
95.410,65.0360,-0.000762
95.426,65.0603,-0.000762
95.442,65.0853,-0.000762
95.458,65.1091,-0.000762
95.474,65.1331,-0.000762
95.490,65.1581,-0.000762
95.505,65.1809,-0.000762
95.521,65.2045,-0.000762
95.537,65.2278,-0.000762
95.554,65.2518,-0.000762
95.569,65.2745,-0.000762
95.586,65.2981,-0.000762
95.602,65.3209,-0.000762
95.617,65.3431,-0.000762
95.634,65.3672,-0.000762
95.664,65.4092,-0.000885
95.680,65.4304,-0.000885
95.696,65.4514,-0.000885
95.713,65.4751,-0.000885
95.730,65.4983,-0.000885
95.758,65.5340,-0.000885
95.777,65.5575,-0.000885
95.797,65.5862,-0.000885
95.821,65.6139,-0.000885
95.841,65.6382,-0.000885
95.856,65.6578,-0.000885
95.873,65.6776,-0.000885
95.889,65.6974,-0.001026
95.905,65.7159,-0.001026
95.921,65.7352,-0.001026
95.937,65.7535,-0.001026
95.952,65.7715,-0.001026
95.969,65.7916,-0.001026
95.985,65.8086,-0.001026
96.001,65.8267,-0.001026
96.016,65.8438,-0.001026
96.032,65.8617,-0.001026
96.049,65.8795,-0.001026
96.065,65.8966,-0.001026
96.080,65.9131,-0.001026
96.097,65.9302,-0.001026
96.112,65.9464,-0.001026
96.128,65.9627,-0.001083
96.144,65.9789,-0.001083
96.160,65.9950,-0.001083
96.177,66.0118,-0.001083
96.192,66.0267,-0.001083
96.217,66.0507,-0.001083
96.234,66.0665,-0.001083
96.253,66.0843,-0.001083
96.285,66.1137,-0.001083
96.300,66.1269,-0.001083
96.315,66.1403,-0.001083
96.346,66.1677,-0.001083
96.362,66.1803,-0.001083
96.377,66.1933,-0.001158
96.395,66.2077,-0.001158
96.423,66.2312,-0.001158
96.442,66.2458,-0.001158
96.457,66.2574,-0.001158
96.474,66.2703,-0.001158
96.490,66.2822,-0.001158
96.507,66.2946,-0.001158
96.523,66.3062,-0.001158
96.538,66.3173,-0.001158
96.561,66.3336,-0.001158
96.576,66.3439,-0.001158
96.592,66.3542,-0.001158
96.607,66.3643,-0.001158
96.623,66.3751,-0.001158
96.638,66.3845,-0.001158
96.654,66.3942,-0.001271
96.670,66.4044,-0.001271
96.687,66.4146,-0.001271
96.717,66.4319,-0.001271
96.747,66.4490,-0.001271
96.762,66.4572,-0.001271
96.793,66.4737,-0.001271
96.811,66.4825,-0.001271
96.840,66.4972,-0.001271
96.857,66.5052,-0.001271
96.873,66.5129,-0.001271
96.889,66.5197,-0.001271
96.906,66.5270,-0.001327
96.932,66.5382,-0.001327
96.954,66.5470,-0.001327
96.969,66.5527,-0.001327
96.986,66.5594,-0.001327
97.004,66.5659,-0.001327
97.019,66.5712,-0.001327
97.040,66.5783,-0.001327
97.071,66.5881,-0.001327
97.101,66.5970,-0.001327
97.132,66.6054,-0.001327
97.164,66.6132,-0.001403
97.196,66.6204,-0.001403
97.226,66.6266,-0.001403
97.242,66.6294,-0.001403
97.270,66.6341,-0.001403
97.287,66.6366,-0.001403
97.319,66.6408,-0.001403
97.350,66.6441,-0.001403
97.367,66.6457,-0.001403
97.382,66.6467,-0.001403
97.412,66.6485,-0.001497
97.432,66.6493,-0.001497
97.458,66.6499,-0.001497
97.477,66.6501,-0.001497
97.494,66.6501,-0.001497
97.520,66.6501,-0.001497
97.541,66.6501,-0.001497
97.558,66.6501,-0.001497
97.573,66.6501,-0.001497
97.589,66.6501,-0.001497
97.605,66.6501,-0.001497
97.622,66.6501,-0.001497
97.644,66.6501,-0.001497
97.675,66.6501,-0.001553
97.691,66.6501,-0.001553
97.721,66.6501,-0.001553
97.752,66.6501,-0.001553
97.782,66.6501,-0.001553
97.813,66.6501,-0.001553
97.829,66.6501,-0.001553
97.845,66.6501,-0.001553
97.861,66.6501,-0.001553
97.877,66.6501,-0.001553
97.893,66.6501,-0.001553
97.909,66.6501,-0.001553
97.925,66.6501,-0.001553
97.941,66.6501,-0.001553
97.970,66.6501,-0.001553
97.994,66.6501,-0.001553
98.016,66.6501,-0.001553
98.037,66.6501,-0.001553
98.054,66.6501,-0.001553
98.079,66.6501,-0.001553
98.110,66.6501,-0.001553
98.141,66.6501,-0.001553
98.157,66.6501,-0.001534
98.172,66.6501,-0.001534
98.203,66.6501,-0.001534
98.218,66.6501,-0.001534
98.234,66.6501,-0.001534
98.250,66.6501,-0.001534
98.265,66.6501,-0.001534
98.282,66.6501,-0.001534
98.305,66.6501,-0.001534
98.321,66.6501,-0.001534
