Elapsed Time (s),Position (mm),Force (N)
-0.011,60.9501,-0.000734
0.020,60.9501,-0.000734
0.051,60.9501,-0.000734
0.081,60.9501,-0.000734
0.097,60.9501,-0.000772
0.112,60.9501,-0.000772
0.128,60.9501,-0.000772
0.144,60.9501,-0.000772
0.160,60.9501,-0.000772
0.176,60.9501,-0.000772
0.192,60.9501,-0.000772
0.208,60.9501,-0.000772
0.224,60.9501,-0.000772
0.241,60.9501,-0.000772
0.266,60.9501,-0.000772
0.297,60.9501,-0.000772
0.328,60.9501,-0.000772
0.344,60.9501,-0.000838
0.359,60.9501,-0.000838
0.374,60.9501,-0.000838
0.391,60.9501,-0.000838
0.421,60.9501,-0.000838
0.452,60.9501,-0.000838
0.468,60.9501,-0.000838
0.496,60.9501,-0.000838
0.513,60.9501,-0.000838
0.530,60.9501,-0.000838
0.561,60.9501,-0.000838
0.591,60.9501,-0.000875
0.608,60.9501,-0.000875
0.639,60.9501,-0.000875
0.655,60.9501,-0.000875
0.671,60.9501,-0.000875
0.687,60.9501,-0.000875
0.703,60.9501,-0.000875
0.719,60.9501,-0.000875
0.740,60.9501,-0.000875
0.762,60.9501,-0.000875
0.783,60.9501,-0.000875
0.799,60.9501,-0.000875
0.815,60.9501,-0.000857
0.831,60.9501,-0.000857
0.847,60.9501,-0.000857
0.863,60.9501,-0.000857
0.879,60.9501,-0.000857
0.895,60.9501,-0.000857
0.911,60.9501,-0.000857
0.927,60.9501,-0.000857
0.943,60.9501,-0.000857
0.959,60.9501,-0.000857
0.975,60.9501,-0.000857
0.991,60.9501,-0.000857
1.007,60.9501,-0.000857
1.036,60.9501,-0.000857
1.055,60.9501,-0.000857
1.085,60.9501,-0.000819
1.116,60.9501,-0.000819
1.146,60.9501,-0.000819
1.164,60.9501,-0.000819
1.179,60.9501,-0.000819
1.194,60.9501,-0.000819
1.211,60.9501,-0.000819
1.227,60.9501,-0.000819
1.242,60.9501,-0.000819
1.259,60.9501,-0.000819
1.275,60.9501,-0.000819
1.292,60.9501,-0.000819
1.307,60.9501,-0.000819
1.322,60.9501,-0.000828
1.340,60.9501,-0.000828
1.355,60.9501,-0.000828
1.370,60.9501,-0.000828
1.387,60.9501,-0.000828
1.403,60.9501,-0.000828
1.418,60.9501,-0.000828
1.434,60.9501,-0.000828
1.451,60.9501,-0.000828
1.467,60.9501,-0.000828
1.489,60.9501,-0.000828
1.519,60.9501,-0.000828
1.550,60.9501,-0.000828
1.579,60.9501,-0.000857
1.595,60.9501,-0.000857
1.610,60.9501,-0.000857
1.627,60.9501,-0.000857
1.642,60.9501,-0.000857
1.659,60.9501,-0.000857
1.675,60.9501,-0.000857
1.690,60.9501,-0.000857
1.706,60.9501,-0.000857
1.725,60.9501,-0.000857
1.751,60.9501,-0.000857
1.771,60.9501,-0.000857
1.787,60.9501,-0.000857
1.803,60.9501,-0.000857
1.818,60.9501,-0.000838
1.835,60.9501,-0.000838
1.852,60.9501,-0.000838
1.869,60.9501,-0.000838
1.890,60.9501,-0.000838
1.907,60.9501,-0.000838
1.938,60.9501,-0.000838
1.968,60.9501,-0.000838
1.984,60.9501,-0.000838
1.999,60.9501,-0.000838
2.015,60.9501,-0.000838
2.031,60.9501,-0.000838
2.047,60.9501,-0.000838
2.063,60.9501,-0.000838
2.094,60.9501,-0.000866
2.123,60.9501,-0.000866
2.139,60.9501,-0.000866
2.155,60.9501,-0.000866
2.170,60.9501,-0.000866
2.186,60.9501,-0.000866
2.203,60.9501,-0.000866
2.224,60.9501,-0.000866
2.247,60.9501,-0.000866
2.267,60.9501,-0.000866
2.282,60.9501,-0.000866
2.298,60.9501,-0.000866
2.315,60.9501,-0.000894
2.330,60.9501,-0.000894
2.346,60.9501,-0.000894
2.362,60.9501,-0.000894
2.378,60.9501,-0.000894
2.395,60.9501,-0.000894
2.412,60.9501,-0.000894
2.432,60.9501,-0.000894
2.448,60.9501,-0.000894
2.478,60.9501,-0.000894
2.509,60.9501,-0.000894
2.525,60.9501,-0.000894
2.547,60.9501,-0.000894
2.571,60.9501,-0.000894
2.602,60.9501,-0.000894
2.618,60.9501,-0.000894
2.644,60.9501,-0.000894
2.661,60.9501,-0.000894
2.677,60.9501,-0.000894
2.692,60.9501,-0.000894
2.708,60.9501,-0.000894
2.724,60.9501,-0.000894
2.740,60.9501,-0.000894
2.756,60.9501,-0.000894
2.772,60.9501,-0.000894
2.788,60.9501,-0.000894
2.804,60.9501,-0.000866
2.820,60.9501,-0.000866
2.836,60.9501,-0.000866
2.852,60.9501,-0.000866
2.868,60.9501,-0.000866
2.884,60.9501,-0.000866
2.900,60.9501,-0.000866
2.916,60.9501,-0.000866
2.932,60.9501,-0.000866
2.948,60.9501,-0.000866
2.964,60.9501,-0.000866
2.980,60.9501,-0.000866
2.996,60.9501,-0.000866
3.014,60.9501,-0.000866
3.031,60.9501,-0.000866
3.052,60.9501,-0.000866
3.082,60.9501,-0.000866
3.098,60.9501,-0.000866
3.129,60.9501,-0.000857
3.160,60.9501,-0.000857
3.192,60.9501,-0.000857
3.207,60.9501,-0.000857
3.223,60.9501,-0.000857
3.239,60.9501,-0.000857
3.270,60.9501,-0.000857
3.285,60.9501,-0.000857
3.302,60.9501,-0.000857
3.331,60.9501,-0.000922
3.348,60.9501,-0.000922
3.364,60.9501,-0.000922
3.380,60.9501,-0.000922
3.397,60.9501,-0.000922
3.413,60.9501,-0.000922
3.433,60.9501,-0.000922
3.456,60.9501,-0.000922
3.476,60.9501,-0.000922
3.492,60.9501,-0.000922
3.508,60.9501,-0.000922
3.524,60.9501,-0.000922
3.540,60.9501,-0.000922
3.557,60.9501,-0.000922
3.572,60.9501,-0.000913
3.588,60.9501,-0.000913
3.604,60.9501,-0.000913
3.620,60.9501,-0.000913
3.636,60.9501,-0.000913
3.652,60.9501,-0.000913
3.668,60.9501,-0.000913
3.684,60.9501,-0.000913
3.700,60.9501,-0.000913
3.730,60.9501,-0.000913
3.747,60.9501,-0.000913
3.778,60.9501,-0.000913
3.808,60.9501,-0.000913
3.825,60.9501,-0.000819
3.841,60.9501,-0.000819
3.857,60.9501,-0.000819
3.873,60.9501,-0.000819
3.889,60.9501,-0.000819
3.905,60.9501,-0.000819
3.923,60.9501,-0.000819
3.948,60.9501,-0.000819
3.969,60.9501,-0.000819
3.985,60.9501,-0.000819
4.001,60.9501,-0.000819
4.017,60.9501,-0.000819
4.033,60.9501,-0.000819
4.049,60.9501,-0.000819
4.065,60.9501,-0.000819
4.081,60.9501,-0.000819
4.097,60.9501,-0.000819
4.113,60.9501,-0.000819
4.129,60.9501,-0.000819
4.144,60.9501,-0.000819
4.161,60.9498,-0.000819
4.177,60.9495,-0.000819
4.193,60.9490,-0.000819
4.210,60.9481,-0.000819
4.239,60.9461,-0.000819
4.268,60.9436,-0.000819
4.291,60.9411,-0.000819
4.315,60.9382,-0.000828
4.331,60.9359,-0.000828
4.348,60.9333,-0.000828
4.378,60.9281,-0.000828
4.395,60.9249,-0.000828
4.411,60.9218,-0.000828
4.427,60.9183,-0.000828
4.442,60.9149,-0.000828
4.459,60.9110,-0.000828
4.474,60.9070,-0.000828
4.491,60.9028,-0.000828
4.507,60.8984,-0.000828
4.522,60.8939,-0.000828
4.538,60.8892,-0.000828
4.555,60.8841,-0.000828
4.571,60.8788,-0.000828
4.586,60.8737,-0.000828
4.602,60.8682,-0.000753
4.618,60.8625,-0.000753
4.634,60.8563,-0.000753
4.651,60.8502,-0.000753
4.667,60.8438,-0.000753
4.682,60.8376,-0.000753
4.698,60.8309,-0.000753
4.714,60.8239,-0.000753
4.730,60.8170,-0.000753
4.747,60.8096,-0.000753
4.762,60.8021,-0.000753
4.779,60.7942,-0.000753
4.809,60.7795,-0.000753
4.825,60.7711,-0.000753
4.840,60.7627,-0.000706
4.856,60.7544,-0.000706
4.873,60.7452,-0.000706
4.888,60.7365,-0.000706
4.904,60.7275,-0.000706
4.920,60.7180,-0.000706
4.943,60.7041,-0.000706
4.965,60.6906,-0.000706
4.984,60.6786,-0.000706
5.000,60.6682,-0.000706
5.017,60.6574,-0.000706
5.032,60.6470,-0.000706
5.049,60.6348,-0.000706
5.065,60.6244,-0.000706
5.080,60.6135,-0.000706
5.096,60.6021,-0.000687
5.113,60.5893,-0.000687
5.129,60.5780,-0.000687
5.144,60.5665,-0.000687
5.160,60.5541,-0.000687
5.176,60.5415,-0.000687
5.192,60.5288,-0.000687
5.208,60.5160,-0.000687
5.225,60.5026,-0.000687
5.240,60.4897,-0.000687
5.257,60.4756,-0.000687
5.273,60.4623,-0.000687
5.288,60.4488,-0.000687
5.313,60.4258,-0.000687
5.335,60.4066,-0.000687
5.354,60.3895,-0.000687
5.374,60.3706,-0.000687
5.397,60.3496,-0.000668
5.416,60.3308,-0.000668
5.432,60.3155,-0.000668
5.448,60.2995,-0.000668
5.465,60.2830,-0.000668
5.481,60.2672,-0.000668
5.496,60.2515,-0.000668
5.512,60.2348,-0.000668
5.532,60.2144,-0.000668
5.549,60.1950,-0.000668
5.581,60.1615,-0.000640
5.596,60.1438,-0.000640
5.612,60.1271,-0.000640
5.628,60.1083,-0.000640
5.659,60.0737,-0.000640
5.689,60.0384,-0.000640
5.720,60.0020,-0.000640
5.736,59.9827,-0.000640
5.752,59.9630,-0.000640
5.768,59.9435,-0.000640
5.784,59.9233,-0.000640
5.800,59.9036,-0.000640
5.816,59.8836,-0.000612
5.832,59.8626,-0.000612
5.848,59.8427,-0.000612
5.876,59.8056,-0.000612
5.892,59.7843,-0.000612
5.908,59.7637,-0.000612
5.924,59.7415,-0.000612
5.940,59.7198,-0.000612
5.956,59.6982,-0.000612
5.972,59.6762,-0.000612
5.988,59.6535,-0.000612
6.004,59.6306,-0.000612
6.020,59.6089,-0.000612
6.036,59.5859,-0.000612
6.052,59.5628,-0.000612
6.068,59.5387,-0.000612
6.084,59.5151,-0.000612
6.100,59.4922,-0.000612
6.116,59.4686,-0.000612
6.132,59.4434,-0.000612
6.148,59.4202,-0.000612
6.164,59.3949,-0.000612
6.181,59.3695,-0.000612
6.197,59.3450,-0.000612
6.212,59.3207,-0.000612
6.228,59.2955,-0.000612
6.244,59.2701,-0.000612
6.260,59.2446,-0.000612
6.276,59.2178,-0.000612
6.292,59.1927,-0.000612
6.308,59.1671,-0.000612
6.324,59.1403,-0.000612
6.340,59.1134,-0.000621
6.357,59.0850,-0.000621
6.379,59.0478,-0.000621
6.404,59.0051,-0.000621
6.433,58.9562,-0.000621
6.451,58.9239,-0.000621
6.467,58.8965,-0.000621
6.483,58.8672,-0.000621
6.501,58.8357,-0.000621
6.525,58.7919,-0.000621
6.541,58.7637,-0.000621
6.571,58.7079,-0.000621
6.587,58.6792,-0.000612
6.602,58.6506,-0.000612
6.619,58.6186,-0.000612
6.649,58.5613,-0.000612
6.665,58.5321,-0.000612
6.696,58.4715,-0.000612
6.711,58.4411,-0.000612
6.742,58.3806,-0.000612
6.758,58.3505,-0.000612
6.774,58.3188,-0.000612
6.806,58.2534,-0.000612
6.836,58.1934,-0.000442
6.852,58.1607,-0.000442
6.869,58.1256,-0.000442
6.899,58.0647,-0.000442
6.926,58.0068,-0.000442
6.942,57.9726,-0.000442
6.958,57.9397,-0.000442
6.974,57.9057,-0.000442
6.990,57.8718,-0.000442
7.005,57.8378,-0.000442
7.021,57.8031,-0.000442
7.038,57.7684,-0.000442
7.056,57.7317,-0.000442
7.085,57.6735,-0.000339
7.102,57.6384,-0.000339
7.118,57.6055,-0.000339
7.133,57.5739,-0.000339
7.150,57.5408,-0.000339
7.166,57.5100,-0.000339
7.182,57.4759,-0.000339
7.198,57.4467,-0.000339
7.214,57.4157,-0.000339
7.230,57.3838,-0.000339
7.246,57.3522,-0.000339
7.261,57.3229,-0.000339
7.277,57.2925,-0.000339
7.293,57.2624,-0.000339
7.310,57.2311,-0.000339
7.326,57.2013,-0.000433
7.341,57.1723,-0.000433
7.357,57.1427,-0.000433
7.374,57.1127,-0.000433
7.390,57.0836,-0.000433
7.406,57.0543,-0.000433
7.422,57.0255,-0.000433
7.446,56.9828,-0.000433
7.461,56.9550,-0.000433
7.477,56.9270,-0.000433
7.494,56.8981,-0.000433
7.510,56.8706,-0.000433
7.525,56.8437,-0.000433
7.541,56.8166,-0.000433
7.558,56.7887,-0.000433
7.574,56.7612,-0.000405
7.590,56.7349,-0.000405
7.605,56.7091,-0.000405
7.622,56.6811,-0.000405
7.638,56.6556,-0.000405
7.654,56.6292,-0.000405
7.669,56.6048,-0.000405
7.686,56.5776,-0.000405
7.701,56.5528,-0.000405
7.718,56.5264,-0.000405
7.736,56.4975,-0.000405
7.755,56.4691,-0.000405
7.780,56.4303,-0.000405
7.798,56.4047,-0.000405
7.813,56.3816,-0.000405
7.830,56.3570,-0.000292
7.845,56.3339,-0.000292
7.863,56.3078,-0.000292
7.888,56.2709,-0.000292
7.909,56.2409,-0.000292
7.929,56.2133,-0.000292
7.950,56.1829,-0.000292
7.981,56.1408,-0.000292
7.999,56.1155,-0.000292
8.015,56.0941,-0.000292
8.032,56.0726,-0.000292
8.047,56.0519,-0.000292
8.064,56.0303,-0.000292
8.079,56.0101,-0.000198
8.095,55.9894,-0.000198
8.111,55.9688,-0.000198
8.129,55.9466,-0.000198
8.150,55.9191,-0.000198
8.165,55.9010,-0.000198
8.196,55.8638,-0.000198
8.211,55.8453,-0.000198
8.242,55.8084,-0.000198
8.257,55.7907,-0.000198
8.287,55.7565,-0.000198
8.304,55.7360,-0.000198
8.320,55.7204,-0.000198
8.335,55.7029,-0.000122
8.351,55.6852,-0.000122
8.369,55.6652,-0.000122
8.397,55.6368,-0.000122
8.415,55.6171,-0.000122
8.431,55.6007,-0.000122
8.447,55.5842,-0.000122
8.463,55.5682,-0.000122
8.479,55.5521,-0.000122
8.495,55.5356,-0.000122
8.511,55.5200,-0.000122
8.527,55.5050,-0.000122
8.550,55.4828,-0.000122
8.568,55.4665,-0.000122
8.597,55.4401,-0.000056
8.615,55.4242,-0.000056
8.643,55.3988,-0.000056
8.661,55.3837,-0.000056
8.677,55.3698,-0.000056
8.693,55.3569,-0.000056
8.709,55.3434,-0.000056
8.725,55.3308,-0.000056
8.741,55.3176,-0.000056
8.757,55.3049,-0.000056
8.773,55.2929,-0.000056
8.789,55.2805,-0.000056
8.805,55.2679,-0.000056
8.821,55.2568,0.000038
8.837,55.2451,0.000038
8.853,55.2336,0.000038
8.869,55.2223,0.000038
8.885,55.2111,0.000038
8.901,55.2001,0.000038
8.917,55.1893,0.000038
8.933,55.1786,0.000038
8.949,55.1684,0.000038
8.965,55.1584,0.000038
8.981,55.1488,0.000038
8.997,55.1392,0.000038
9.013,55.1297,0.000038
9.029,55.1202,0.000038
9.048,55.1094,0.000038
9.073,55.0953,0.000038
9.091,55.0855,0.000038
9.121,55.0705,0.000047
9.136,55.0626,0.000047
9.152,55.0546,0.000047
9.168,55.0473,0.000047
9.185,55.0396,0.000047
9.200,55.0324,0.000047
9.216,55.0254,0.000047
9.232,55.0187,0.000047
9.249,55.0115,0.000047
9.276,55.0007,0.000047
9.296,54.9932,0.000047
9.312,54.9868,0.000047
9.328,54.9815,0.000000
9.344,54.9759,0.000000
9.360,54.9704,0.000000
9.376,54.9653,0.000000
9.392,54.9606,0.000000
9.408,54.9559,0.000000
9.425,54.9509,0.000000
9.440,54.9467,0.000000
9.456,54.9428,0.000000
9.473,54.9384,0.000000
9.494,54.9333,0.000000
9.522,54.9275,0.000000
9.539,54.9243,0.000000
9.555,54.9213,0.000000
9.585,54.9162,-0.000028
9.602,54.9136,-0.000028
9.618,54.9115,-0.000028
9.633,54.9096,-0.000028
9.649,54.9078,-0.000028
9.666,54.9060,-0.000028
9.696,54.9036,-0.000028
9.715,54.9023,-0.000028
9.730,54.9015,-0.000028
9.759,54.9005,-0.000028
9.776,54.9002,-0.000028
9.792,54.9001,-0.000028
9.808,54.9001,-0.000442
9.824,54.9001,-0.000442
9.840,54.9001,-0.000442
9.856,54.9001,-0.000442
9.871,54.9001,-0.000442
9.887,54.9002,-0.000442
9.906,54.9005,-0.000442
9.928,54.9011,-0.000442
9.958,54.9027,-0.000442
9.974,54.9038,-0.000442
10.005,54.9064,-0.000442
10.022,54.9083,-0.000442
10.052,54.9119,-0.000442
10.068,54.9141,-0.000791
10.099,54.9189,-0.000791
10.129,54.9244,-0.000791
10.146,54.9280,-0.000791
10.176,54.9342,-0.000791
10.192,54.9380,-0.000791
10.209,54.9423,-0.000791
10.224,54.9461,-0.000791
10.239,54.9502,-0.000791
10.256,54.9549,-0.000791
10.272,54.9596,-0.000791
10.288,54.9645,-0.000791
10.303,54.9695,-0.000753
10.319,54.9746,-0.000753
10.335,54.9802,-0.000753
10.352,54.9862,-0.000753
10.367,54.9917,-0.000753
10.383,54.9977,-0.000753
10.400,55.0043,-0.000753
10.416,55.0107,-0.000753
10.432,55.0173,-0.000753
10.448,55.0240,-0.000753
10.464,55.0312,-0.000753
10.479,55.0380,-0.000753
10.496,55.0457,-0.000753
10.511,55.0533,-0.000753
10.528,55.0614,-0.000753
10.543,55.0690,-0.000753
10.560,55.0772,-0.000781
10.575,55.0856,-0.000781
10.591,55.0939,-0.000781
10.607,55.1027,-0.000781
10.637,55.1201,-0.000781
10.660,55.1329,-0.000781
10.689,55.1509,-0.000781
10.719,55.1696,-0.000781
10.734,55.1793,-0.000781
10.765,55.2004,-0.000781
10.781,55.2106,-0.000781
10.797,55.2212,-0.000781
10.812,55.2321,-0.000819
10.828,55.2438,-0.000819
10.844,55.2552,-0.000819
10.860,55.2671,-0.000819
10.882,55.2838,-0.000819
10.905,55.3012,-0.000819
10.924,55.3166,-0.000819
10.940,55.3295,-0.000819
10.957,55.3426,-0.000819
10.972,55.3553,-0.000819
10.989,55.3689,-0.000819
11.004,55.3823,-0.000819
11.021,55.3968,-0.000819
11.045,55.4180,-0.000819
11.060,55.4312,-0.000819
11.090,55.4589,-0.000828
11.106,55.4737,-0.000828
11.136,55.5014,-0.000828
11.152,55.5164,-0.000828
11.178,55.5428,-0.000828
11.195,55.5587,-0.000828
11.210,55.5742,-0.000828
11.226,55.5904,-0.000828
11.243,55.6078,-0.000828
11.259,55.6243,-0.000828
11.274,55.6405,-0.000828
11.290,55.6576,-0.000828
11.307,55.6762,-0.000828
11.323,55.6925,-0.000828
11.339,55.7101,-0.000800
11.354,55.7281,-0.000800
11.371,55.7458,-0.000800
11.386,55.7640,-0.000800
11.402,55.7825,-0.000800
11.419,55.8015,-0.000800
11.439,55.8259,-0.000800
11.461,55.8523,-0.000800
11.482,55.8775,-0.000800
11.499,55.8972,-0.000800
11.514,55.9165,-0.000800
11.530,55.9361,-0.000800
11.546,55.9568,-0.000800
11.563,55.9775,-0.000800
11.578,55.9970,-0.000781
11.595,56.0184,-0.000781
11.610,56.0389,-0.000781
11.626,56.0610,-0.000781
11.642,56.0813,-0.000781
11.659,56.1041,-0.000781
11.674,56.1243,-0.000781
11.700,56.1599,-0.000781
11.716,56.1825,-0.000781
11.733,56.2052,-0.000781
11.748,56.2278,-0.000781
11.764,56.2500,-0.000781
11.780,56.2729,-0.000781
11.796,56.2965,-0.000781
11.812,56.3192,-0.000781
11.828,56.3434,-0.000810
11.844,56.3667,-0.000810
11.860,56.3909,-0.000810
11.877,56.4170,-0.000810
11.908,56.4644,-0.000810
11.924,56.4885,-0.000810
11.940,56.5141,-0.000810
11.957,56.5408,-0.000810
11.972,56.5636,-0.000810
11.989,56.5904,-0.000810
12.017,56.6353,-0.000810
12.037,56.6682,-0.000810
12.053,56.6946,-0.000810
12.069,56.7217,-0.000810
12.095,56.7643,-0.000508
12.116,56.8007,-0.000508
12.132,56.8279,-0.000508
12.148,56.8543,-0.000508
12.164,56.8821,-0.000508
12.181,56.9118,-0.000508
12.196,56.9380,-0.000508
12.212,56.9673,-0.000508
12.242,57.0201,-0.000508
12.258,57.0492,-0.000508
12.274,57.0773,-0.000508
12.290,57.1071,-0.000508
12.306,57.1362,-0.000508
12.322,57.1650,-0.000235
12.338,57.1949,-0.000235
12.354,57.2250,-0.000235
12.370,57.2548,-0.000235
12.386,57.2853,-0.000235
12.402,57.3154,-0.000235
12.418,57.3460,-0.000235
12.434,57.3773,-0.000235
12.450,57.4095,-0.000235
12.466,57.4395,-0.000235
12.482,57.4732,-0.000235
12.498,57.5026,-0.000235
12.514,57.5360,-0.000235
12.530,57.5666,-0.000235
12.546,57.5986,-0.000235
12.562,57.6334,-0.000235
12.578,57.6637,-0.000377
12.594,57.6967,-0.000377
12.610,57.7308,-0.000377
12.626,57.7632,-0.000377
12.642,57.7974,-0.000377
12.658,57.8305,-0.000377
12.675,57.8676,-0.000377
12.696,57.9114,-0.000377
12.712,57.9460,-0.000377
12.743,58.0105,-0.000377
12.759,58.0438,-0.000377
12.786,58.1005,-0.000377
12.804,58.1385,-0.000377
12.820,58.1693,-0.000452
12.835,58.2001,-0.000452
12.866,58.2629,-0.000452
12.896,58.3209,-0.000452
12.913,58.3548,-0.000452
12.929,58.3860,-0.000452
12.945,58.4170,-0.000452
12.961,58.4473,-0.000452
12.977,58.4805,-0.000452
12.993,58.5089,-0.000452
13.008,58.5389,-0.000452
13.025,58.5691,-0.000452
13.043,58.6043,-0.000452
13.067,58.6486,-0.000433
13.089,58.6878,-0.000433
13.105,58.7179,-0.000433
13.121,58.7463,-0.000433
13.137,58.7757,-0.000433
13.153,58.8031,-0.000433
13.169,58.8326,-0.000433
13.185,58.8610,-0.000433
13.201,58.8886,-0.000433
13.217,58.9162,-0.000433
13.232,58.9438,-0.000433
13.248,58.9705,-0.000433
13.265,58.9979,-0.000433
13.282,59.0273,-0.000433
13.297,59.0520,-0.000433
13.313,59.0792,-0.000433
13.342,59.1282,-0.000442
13.357,59.1525,-0.000442
13.373,59.1783,-0.000442
13.389,59.2041,-0.000442
13.405,59.2306,-0.000442
13.422,59.2563,-0.000442
13.437,59.2802,-0.000442
13.454,59.3064,-0.000442
13.472,59.3352,-0.000442
13.500,59.3767,-0.000442
13.517,59.4031,-0.000442
13.533,59.4269,-0.000442
13.549,59.4508,-0.000442
13.566,59.4752,-0.000546
13.582,59.4983,-0.000546
13.598,59.5224,-0.000546
13.614,59.5445,-0.000546
13.629,59.5665,-0.000546
13.646,59.5899,-0.000546
13.661,59.6120,-0.000546
13.678,59.6354,-0.000546
13.701,59.6671,-0.000546
13.717,59.6883,-0.000546
13.733,59.7108,-0.000546
13.764,59.7515,-0.000546
13.780,59.7719,-0.000546
13.795,59.7927,-0.000546
13.810,59.8115,-0.000668
13.826,59.8320,-0.000668
13.842,59.8520,-0.000668
13.866,59.8814,-0.000668
13.881,59.9012,-0.000668
13.897,59.9203,-0.000668
13.914,59.9409,-0.000668
13.930,59.9595,-0.000668
13.945,59.9776,-0.000668
13.962,59.9981,-0.000668
13.986,60.0261,-0.000668
14.012,60.0552,-0.000668
14.027,60.0722,-0.000668
14.043,60.0912,-0.000668
14.073,60.1236,-0.000697
14.096,60.1486,-0.000697
14.120,60.1729,-0.000697
14.137,60.1906,-0.000697
14.153,60.2075,-0.000697
14.169,60.2235,-0.000697
14.185,60.2393,-0.000697
14.201,60.2553,-0.000697
14.218,60.2722,-0.000697
14.234,60.2868,-0.000697
14.249,60.3018,-0.000697
14.265,60.3174,-0.000697
14.282,60.3336,-0.000697
14.298,60.3472,-0.000697
14.313,60.3612,-0.000744
14.330,60.3760,-0.000744
14.346,60.3902,-0.000744
14.361,60.4036,-0.000744
14.377,60.4178,-0.000744
14.398,60.4354,-0.000744
14.414,60.4485,-0.000744
14.430,60.4619,-0.000744
14.446,60.4746,-0.000744
14.464,60.4893,-0.000744
14.490,60.5088,-0.000744
14.510,60.5244,-0.000744
14.527,60.5372,-0.000744
14.542,60.5484,-0.000744
14.558,60.5598,-0.000697
14.574,60.5711,-0.000697
14.591,60.5827,-0.000697
14.606,60.5933,-0.000697
14.622,60.6044,-0.000697
14.638,60.6148,-0.000697
14.654,60.6256,-0.000697
14.670,60.6354,-0.000697
14.686,60.6456,-0.000697
14.702,60.6556,-0.000697
14.718,60.6649,-0.000697
14.735,60.6752,-0.000697
14.753,60.6855,-0.000697
14.785,60.7034,-0.000697
14.816,60.7198,-0.000687
14.848,60.7358,-0.000687
14.878,60.7508,-0.000687
14.895,60.7590,-0.000687
14.910,60.7658,-0.000687
14.926,60.7726,-0.000687
14.954,60.7845,-0.000687
14.969,60.7907,-0.000687
14.985,60.7972,-0.000687
15.002,60.8040,-0.000687
15.017,60.8098,-0.000687
15.033,60.8154,-0.000687
15.049,60.8208,-0.000687
15.065,60.8266,-0.000753
15.082,60.8319,-0.000753
15.097,60.8367,-0.000753
15.113,60.8416,-0.000753
15.131,60.8470,-0.000753
15.154,60.8530,-0.000753
15.169,60.8572,-0.000753
15.185,60.8612,-0.000753
15.202,60.8650,-0.000753
15.232,60.8717,-0.000753
15.263,60.8778,-0.000753
15.293,60.8829,-0.000753
15.324,60.8876,-0.000753
15.354,60.8914,-0.000753
15.370,60.8930,-0.000753
15.385,60.8945,-0.000753
15.401,60.8959,-0.000753
15.417,60.8971,-0.000753
15.435,60.8981,-0.000753
15.462,60.8994,-0.000753
15.490,60.9000,-0.000753
15.506,60.9001,-0.000753
15.522,60.9001,-0.000753
15.537,60.9001,-0.000753
15.554,60.9001,-0.000753
15.571,60.9001,-0.000753
15.586,60.9001,-0.000706
15.602,60.9001,-0.000706
15.618,60.9001,-0.000706
15.635,60.9001,-0.000706
15.651,60.9001,-0.000706
15.666,60.9001,-0.000706
15.682,60.9001,-0.000706
15.697,60.9001,-0.000706
15.714,60.9001,-0.000706
15.730,60.9001,-0.000706
15.746,60.9001,-0.000706
15.762,60.9001,-0.000706
15.778,60.9001,-0.000706
15.794,60.9001,-0.000706
15.810,60.9001,-0.000706
15.826,60.9001,-0.000819
15.842,60.9001,-0.000819
15.858,60.9001,-0.000819
15.874,60.9001,-0.000819
15.890,60.9001,-0.000819
15.906,60.9001,-0.000819
15.921,60.9001,-0.000819
15.938,60.9001,-0.000819
15.953,60.9001,-0.000819
15.970,60.9001,-0.000819
15.987,60.9001,-0.000819
16.017,60.9001,-0.000819
16.044,60.9001,-0.000819
16.059,60.9001,-0.000819
16.076,60.9001,-0.000913
16.092,60.9001,-0.000913
16.108,60.9001,-0.000913
16.123,60.9001,-0.000913
16.139,60.9001,-0.000913
16.156,60.9001,-0.000913
16.171,60.9001,-0.000913
16.187,60.9001,-0.000913
16.204,60.9001,-0.000913
16.219,60.9001,-0.000913
16.235,60.9001,-0.000913
16.252,60.9001,-0.000913
16.267,60.9001,-0.000913
16.284,60.9001,-0.000913
16.300,60.9001,-0.000913
16.316,60.9001,-0.000847
16.332,60.9001,-0.000847
16.348,60.9001,-0.000847
16.364,60.9001,-0.000847
16.380,60.9001,-0.000847
16.395,60.9001,-0.000847
16.414,60.9001,-0.000847
16.436,60.9001,-0.000847
16.452,60.9001,-0.000847
16.482,60.9001,-0.000847
16.497,60.9001,-0.000847
16.528,60.9001,-0.000847
16.543,60.9001,-0.000847
16.560,60.9001,-0.000847
16.591,60.9001,-0.000866
16.606,60.9001,-0.000866
16.622,60.9001,-0.000866
16.638,60.9001,-0.000866
16.668,60.9001,-0.000866
16.699,60.9001,-0.000866
16.717,60.9001,-0.000866
16.746,60.9001,-0.000866
16.763,60.9001,-0.000866
16.779,60.9001,-0.000866
16.794,60.9001,-0.000866
16.811,60.9001,-0.000875
16.827,60.9001,-0.000875
16.844,60.9001,-0.000875
16.860,60.9001,-0.000875
16.875,60.9001,-0.000875
16.891,60.9001,-0.000875
16.908,60.9001,-0.000875
16.924,60.9001,-0.000875
16.939,60.9001,-0.000875
16.956,60.9001,-0.000875
16.972,60.9001,-0.000875
16.987,60.9001,-0.000875
17.003,60.9001,-0.000875
17.019,60.9001,-0.000875
17.036,60.9001,-0.000875
17.052,60.9001,-0.000875
17.067,60.9001,-0.000875
17.083,60.9001,-0.000875
17.110,60.9001,-0.000875
17.126,60.9001,-0.000875
17.143,60.9001,-0.000875
17.159,60.9001,-0.000875
17.175,60.9001,-0.000875
17.190,60.9001,-0.000875
17.206,60.9001,-0.000875
17.223,60.9001,-0.000875
17.238,60.9001,-0.000875
17.254,60.9001,-0.000875
17.270,60.9001,-0.000875
17.286,60.9001,-0.000875
17.303,60.9001,-0.000875
17.318,60.9001,-0.000875
17.334,60.9001,-0.000875
17.350,60.9001,-0.000875
17.366,60.9001,-0.000875
17.382,60.9001,-0.000875
17.401,60.9001,-0.000875
17.428,60.9001,-0.000875
17.446,60.9001,-0.000875
17.464,60.9001,-0.000875
17.489,60.9001,-0.000875
17.505,60.9001,-0.000875
17.520,60.9001,-0.000875
17.537,60.9001,-0.000875
17.558,60.9001,-0.000875
17.574,60.9001,-0.000875
17.590,60.9001,-0.000875
17.606,60.9001,-0.000875
17.622,60.9001,-0.000875
17.645,60.9001,-0.000875
17.661,60.9001,-0.000875
17.677,60.9001,-0.000875
17.693,60.9001,-0.000875
17.715,60.9001,-0.000875
17.739,60.9001,-0.000875
17.757,60.9001,-0.000875
17.773,60.9001,-0.000875
17.789,60.9001,-0.000875
17.806,60.9001,-0.000875
17.821,60.9001,-0.000875
17.838,60.9001,-0.000875
17.861,60.9001,-0.000875
17.892,60.9001,-0.000875
17.907,60.9001,-0.000875
17.938,60.9001,-0.000875
17.955,60.9001,-0.000875
17.984,60.9001,-0.000875
18.015,60.9001,-0.000875
18.046,60.9001,-0.000875
18.061,60.9001,-0.000894
18.078,60.9001,-0.000894
18.093,60.9001,-0.000894
18.109,60.9001,-0.000894
18.126,60.9001,-0.000894
18.154,60.9001,-0.000894
18.183,60.9001,-0.000894
18.199,60.9001,-0.000894
18.215,60.9001,-0.000894
18.231,60.9001,-0.000894
18.248,60.9001,-0.000894
18.263,60.9001,-0.000894
18.279,60.9001,-0.000894
18.295,60.9001,-0.000894
18.316,60.9001,-0.000894
18.341,60.9001,-0.000904
18.359,60.9001,-0.000904
18.376,60.9001,-0.000904
18.403,60.9001,-0.000904
18.422,60.9001,-0.000904
18.439,60.9001,-0.000904
18.456,60.9001,-0.000904
18.471,60.9001,-0.000904
18.487,60.9001,-0.000904
18.503,60.9001,-0.000904
18.520,60.9001,-0.000904
18.535,60.9001,-0.000904
18.551,60.9001,-0.000904
18.567,60.9001,-0.000904
18.583,60.9001,-0.000922
18.599,60.9001,-0.000922
18.615,60.9001,-0.000922
18.631,60.9001,-0.000922
18.647,60.9001,-0.000922
18.663,60.9001,-0.000922
18.679,60.9001,-0.000922
18.695,60.9001,-0.000922
18.711,60.9001,-0.000922
18.740,60.9001,-0.000922
18.758,60.9001,-0.000922
18.788,60.9001,-0.000922
18.805,60.9001,-0.000922
18.835,60.9001,-0.000904
18.852,60.9001,-0.000904
18.869,60.9001,-0.000904
18.884,60.9001,-0.000904
18.900,60.9001,-0.000904
18.916,60.9001,-0.000904
18.937,60.9001,-0.000904
18.959,60.9001,-0.000904
18.980,60.9001,-0.000904
18.996,60.9001,-0.000904
19.013,60.9001,-0.000904
19.037,60.9001,-0.000904
19.068,60.9001,-0.000904
19.098,60.9001,-0.000866
19.114,60.9001,-0.000866
19.130,60.9001,-0.000866
19.160,60.9001,-0.000866
19.191,60.9001,-0.000866
19.206,60.9001,-0.000866
19.237,60.9001,-0.000866
19.268,60.9001,-0.000866
19.296,60.9001,-0.000866
19.312,60.9001,-0.000866
19.328,60.9001,-0.000885
19.343,60.9001,-0.000885
19.359,60.9001,-0.000885
19.375,60.9001,-0.000885
19.392,60.9001,-0.000885
19.420,60.9001,-0.000885
19.440,60.9001,-0.000885
19.455,60.9001,-0.000885
19.472,60.9001,-0.000885
19.488,60.9001,-0.000885
19.504,60.9001,-0.000885
19.519,60.9001,-0.000885
19.536,60.9001,-0.000885
19.552,60.9001,-0.000885
19.568,60.9001,-0.000904
19.583,60.9001,-0.000904
19.600,60.9001,-0.000904
19.616,60.9001,-0.000904
19.631,60.9001,-0.000904
19.647,60.9001,-0.000904
19.664,60.9001,-0.000904
19.680,60.9001,-0.000904
19.695,60.9001,-0.000904
19.711,60.9001,-0.000904
19.727,60.9000,-0.000904
19.744,60.8997,-0.000904
19.759,60.8992,-0.000904
19.776,60.8986,-0.000904
19.794,60.8975,-0.000904
19.821,60.8955,-0.000904
19.852,60.8928,-0.000932
19.868,60.8909,-0.000932
19.884,60.8891,-0.000932
19.899,60.8870,-0.000932
19.916,60.8845,-0.000932
19.931,60.8820,-0.000932
19.948,60.8791,-0.000932
19.965,60.8760,-0.000932
19.980,60.8732,-0.000932
19.995,60.8698,-0.000932
20.012,60.8662,-0.000932
20.028,60.8625,-0.000932
20.043,60.8587,-0.000932
20.059,60.8546,-0.000932
20.075,60.8504,-0.000819
20.092,60.8458,-0.000819
20.108,60.8409,-0.000819
20.124,60.8361,-0.000819
20.139,60.8313,-0.000819
20.156,60.8256,-0.000819
20.177,60.8181,-0.000819
20.193,60.8128,-0.000819
20.223,60.8015,-0.000819
20.254,60.7891,-0.000819
20.284,60.7761,-0.000819
20.300,60.7696,-0.000819
20.315,60.7626,-0.000697
20.331,60.7554,-0.000697
20.349,60.7462,-0.000697
20.376,60.7332,-0.000697
20.407,60.7175,-0.000697
20.424,60.7087,-0.000697
20.439,60.7003,-0.000697
20.455,60.6915,-0.000697
20.472,60.6816,-0.000697
20.487,60.6731,-0.000697
20.504,60.6635,-0.000697
20.519,60.6539,-0.000697
20.536,60.6437,-0.000697
20.551,60.6337,-0.000697
20.567,60.6238,-0.000697
20.583,60.6131,-0.000697
20.599,60.6023,-0.000697
20.615,60.5915,-0.000697
20.631,60.5809,-0.000697
20.647,60.5695,-0.000697
20.665,60.5572,-0.000697
20.685,60.5427,-0.000697
20.715,60.5195,-0.000697
20.746,60.4960,-0.000697
20.776,60.4718,-0.000697
20.791,60.4597,-0.000697
20.807,60.4467,-0.000678
20.824,60.4325,-0.000678
20.840,60.4179,-0.000678
20.855,60.4059,-0.000678
20.871,60.3920,-0.000678
20.892,60.3740,-0.000678
20.915,60.3525,-0.000678
20.935,60.3348,-0.000678
20.959,60.3122,-0.000678
20.974,60.2975,-0.000678
20.990,60.2822,-0.000678
21.006,60.2671,-0.000678
21.024,60.2492,-0.000678
21.053,60.2190,-0.000668
21.070,60.2027,-0.000668
21.086,60.1850,-0.000668
21.103,60.1690,-0.000668
21.118,60.1525,-0.000668
21.134,60.1356,-0.000668
21.150,60.1178,-0.000668
21.166,60.0999,-0.000668
21.182,60.0832,-0.000668
21.198,60.0652,-0.000668
21.214,60.0462,-0.000668
21.230,60.0282,-0.000668
21.246,60.0106,-0.000668
21.262,59.9903,-0.000668
21.280,59.9703,-0.000668
21.301,59.9447,-0.000668
21.333,59.9054,-0.000650
21.363,59.8696,-0.000650
21.379,59.8492,-0.000650
21.395,59.8285,-0.000650
21.411,59.8078,-0.000650
21.442,59.7680,-0.000650
21.473,59.7271,-0.000650
21.503,59.6878,-0.000650
21.518,59.6659,-0.000650
21.534,59.6441,-0.000650
21.550,59.6218,-0.000650
21.566,59.6005,-0.000602
21.588,59.5680,-0.000602
21.610,59.5365,-0.000602
21.630,59.5084,-0.000602
21.648,59.4829,-0.000602
21.672,59.4477,-0.000602
21.688,59.4227,-0.000602
21.712,59.3876,-0.000602
21.735,59.3519,-0.000602
21.751,59.3267,-0.000602
21.767,59.3026,-0.000602
21.782,59.2789,-0.000602
21.813,59.2276,-0.000602
21.844,59.1793,-0.000602
21.875,59.1294,-0.000602
21.890,59.1046,-0.000602
21.907,59.0770,-0.000602
21.937,59.0256,-0.000602
21.968,58.9750,-0.000602
21.983,58.9488,-0.000602
21.999,58.9219,-0.000602
22.015,58.8920,-0.000602
22.035,58.8579,-0.000602
22.052,58.8279,-0.000602
22.068,58.8008,-0.000574
22.084,58.7712,-0.000574
22.099,58.7437,-0.000574
22.115,58.7148,-0.000574
22.131,58.6857,-0.000574
22.148,58.6556,-0.000574
22.164,58.6255,-0.000574
22.180,58.5959,-0.000574
22.196,58.5661,-0.000574
22.212,58.5361,-0.000574
22.228,58.5051,-0.000574
22.243,58.4759,-0.000574
22.259,58.4452,-0.000574
22.275,58.4143,-0.000574
22.292,58.3818,-0.000574
22.307,58.3518,-0.000480
22.324,58.3195,-0.000480
22.339,58.2875,-0.000480
22.356,58.2560,-0.000480
22.372,58.2238,-0.000480
22.388,58.1898,-0.000480
22.404,58.1589,-0.000480
22.420,58.1261,-0.000480
22.436,58.0926,-0.000480
22.461,58.0416,-0.000480
22.477,58.0080,-0.000480
22.492,57.9745,-0.000480
22.523,57.9111,-0.000480
22.553,57.8461,-0.000480
22.583,57.7809,-0.000358
22.614,57.7168,-0.000358
22.644,57.6547,-0.000358
22.665,57.6124,-0.000358
22.691,57.5584,-0.000358
22.709,57.5231,-0.000358
22.739,57.4634,-0.000358
22.755,57.4312,-0.000358
22.772,57.3974,-0.000358
22.788,57.3679,-0.000358
22.803,57.3375,-0.000358
22.819,57.3064,-0.000358
22.835,57.2746,-0.000358
22.851,57.2450,-0.000358
22.868,57.2142,-0.000358
22.883,57.1847,-0.000358
22.900,57.1540,-0.000358
22.915,57.1246,-0.000358
22.931,57.0956,-0.000358
22.947,57.0654,-0.000358
22.964,57.0357,-0.000358
22.979,57.0075,-0.000358
22.996,56.9780,-0.000358
23.011,56.9502,-0.000358
23.027,56.9217,-0.000358
23.043,56.8934,-0.000358
23.059,56.8654,-0.000386
23.076,56.8365,-0.000386
23.091,56.8102,-0.000386
23.107,56.7825,-0.000386
23.128,56.7467,-0.000386
23.144,56.7200,-0.000386
23.160,56.6921,-0.000386
23.176,56.6666,-0.000386
23.192,56.6399,-0.000386
23.209,56.6130,-0.000386
23.224,56.5879,-0.000386
23.241,56.5611,-0.000386
23.256,56.5360,-0.000386
23.273,56.5094,-0.000386
23.288,56.4857,-0.000386
23.305,56.4598,-0.000386
23.320,56.4350,-0.000386
23.336,56.4108,-0.000282
23.352,56.3865,-0.000282
23.368,56.3622,-0.000282
23.384,56.3380,-0.000282
23.400,56.3141,-0.000282
23.416,56.2893,-0.000282
23.433,56.2647,-0.000282
23.449,56.2430,-0.000282
23.464,56.2203,-0.000282
23.481,56.1955,-0.000282
23.504,56.1630,-0.000282
23.527,56.1320,-0.000282
23.545,56.1058,-0.000282
23.560,56.0844,-0.000282
23.576,56.0631,-0.000282
23.592,56.0411,-0.000160
23.608,56.0208,-0.000160
23.625,55.9981,-0.000160
23.641,55.9777,-0.000160
23.656,55.9581,-0.000160
23.682,55.9248,-0.000160
23.698,55.9042,-0.000160
23.714,55.8843,-0.000160
23.730,55.8642,-0.000160
23.746,55.8435,-0.000160
23.762,55.8249,-0.000160
23.778,55.8053,-0.000160
23.794,55.7865,-0.000160
23.813,55.7638,-0.000160
23.836,55.7366,-0.000160
23.866,55.7023,-0.000047
23.896,55.6684,-0.000047
23.927,55.6349,-0.000047
23.942,55.6182,-0.000047
23.958,55.6006,-0.000047
23.974,55.5833,-0.000047
24.006,55.5513,-0.000047
24.021,55.5356,-0.000047
24.037,55.5191,-0.000047
24.052,55.5045,-0.000047
24.082,55.4748,-0.000009
24.098,55.4594,-0.000009
24.115,55.4431,-0.000009
24.131,55.4281,-0.000009
24.159,55.4016,-0.000009
24.178,55.3850,-0.000009
24.194,55.3709,-0.000009
24.210,55.3565,-0.000009
24.234,55.3357,-0.000009
24.250,55.3219,-0.000009
24.266,55.3090,-0.000009
24.282,55.2954,-0.000009
24.300,55.2803,-0.000009
24.329,55.2573,0.000000
24.346,55.2448,0.000000
24.364,55.2302,0.000000
24.390,55.2113,0.000000
24.410,55.1969,0.000000
24.426,55.1848,0.000000
24.442,55.1737,0.000000
24.458,55.1630,0.000000
24.474,55.1517,0.000000
24.490,55.1409,0.000000
24.506,55.1309,0.000000
24.522,55.1206,0.000000
24.537,55.1104,0.000000
24.554,55.0999,0.000000
24.576,55.0867,0.000000
24.592,55.0768,0.000000
24.623,55.0593,0.000000
24.638,55.0509,0.000000
24.654,55.0420,0.000000
24.685,55.0262,0.000000
24.715,55.0108,0.000000
24.745,54.9963,0.000000
24.761,54.9888,0.000000
24.789,54.9764,0.000000
24.804,54.9698,0.000000
24.821,54.9626,-0.000056
24.837,54.9565,-0.000056
24.852,54.9502,-0.000056
24.868,54.9439,-0.000056
24.885,54.9380,-0.000056
24.901,54.9322,-0.000056
24.917,54.9268,-0.000056
24.932,54.9213,-0.000056
24.949,54.9163,-0.000056
24.965,54.9111,-0.000056
24.980,54.9065,-0.000056
24.996,54.9021,-0.000056
25.013,54.8976,-0.000056
25.029,54.8933,-0.000056
25.044,54.8894,-0.000056
25.060,54.8857,-0.000151
25.076,54.8820,-0.000151
25.095,54.8780,-0.000151
25.117,54.8737,-0.000151
25.148,54.8681,-0.000151
25.180,54.8634,-0.000151
25.210,54.8593,-0.000151
25.241,54.8561,-0.000151
25.257,54.8547,-0.000151
25.273,54.8533,-0.000151
25.288,54.8525,-0.000151
25.304,54.8516,-0.000151
25.336,54.8505,-0.000471
25.365,54.8501,-0.000471
25.381,54.8501,-0.000471
25.398,54.8501,-0.000471
25.427,54.8501,-0.000471
25.445,54.8501,-0.000471
25.461,54.8501,-0.000471
25.476,54.8501,-0.000471
25.492,54.8501,-0.000471
25.510,54.8501,-0.000471
25.535,54.8502,-0.000471
25.566,54.8511,-0.000471
25.581,54.8517,-0.000471
25.612,54.8536,-0.000697
25.642,54.8562,-0.000697
25.657,54.8577,-0.000697
25.688,54.8613,-0.000697
25.719,54.8657,-0.000697
25.749,54.8707,-0.000697
25.765,54.8735,-0.000697
25.780,54.8765,-0.000697
25.796,54.8799,-0.000697
25.812,54.8832,-0.000697
25.829,54.8871,-0.000697
25.845,54.8910,-0.000697
25.870,54.8975,-0.000828
25.885,54.9016,-0.000828
25.901,54.9062,-0.000828
25.917,54.9109,-0.000828
25.933,54.9160,-0.000828
25.949,54.9213,-0.000828
25.965,54.9264,-0.000828
25.981,54.9321,-0.000828
25.997,54.9378,-0.000828
26.014,54.9437,-0.000828
26.030,54.9499,-0.000828
26.045,54.9561,-0.000828
26.062,54.9628,-0.000828
26.077,54.9692,-0.000828
26.094,54.9765,-0.000913
26.109,54.9832,-0.000913
26.125,54.9904,-0.000913
26.141,54.9979,-0.000913
26.157,55.0055,-0.000913
26.174,55.0136,-0.000913
26.189,55.0218,-0.000913
26.205,55.0301,-0.000913
26.221,55.0381,-0.000913
26.237,55.0471,-0.000913
26.254,55.0561,-0.000913
26.269,55.0648,-0.000913
26.285,55.0738,-0.000913
26.301,55.0835,-0.000913
26.317,55.0932,-0.000913
26.333,55.1026,-0.000828
26.351,55.1138,-0.000828
26.381,55.1331,-0.000828
26.397,55.1444,-0.000828
26.422,55.1607,-0.000828
26.439,55.1723,-0.000828
26.454,55.1832,-0.000828
26.471,55.1954,-0.000828
26.488,55.2082,-0.000828
26.519,55.2310,-0.000828
26.542,55.2490,-0.000828
26.565,55.2673,-0.000828
26.582,55.2803,-0.000828
26.598,55.2929,-0.000819
26.614,55.3063,-0.000819
26.630,55.3195,-0.000819
26.646,55.3332,-0.000819
26.662,55.3473,-0.000819
26.678,55.3616,-0.000819
26.694,55.3750,-0.000819
26.710,55.3896,-0.000819
26.726,55.4049,-0.000819
26.743,55.4195,-0.000819
26.764,55.4391,-0.000819
26.795,55.4695,-0.000819
26.826,55.4991,-0.000828
26.843,55.5161,-0.000828
26.873,55.5465,-0.000828
26.888,55.5627,-0.000828
26.919,55.5952,-0.000828
26.950,55.6284,-0.000828
26.974,55.6563,-0.000828
26.997,55.6803,-0.000828
27.014,55.6993,-0.000828
27.030,55.7180,-0.000828
27.046,55.7359,-0.000828
27.063,55.7556,-0.000838
27.078,55.7733,-0.000838
27.094,55.7931,-0.000838
27.110,55.8119,-0.000838
27.126,55.8305,-0.000838
27.142,55.8502,-0.000838
27.158,55.8714,-0.000838
27.174,55.8903,-0.000838
27.190,55.9100,-0.000838
27.206,55.9310,-0.000838
27.222,55.9521,-0.000838
27.238,55.9718,-0.000838
27.254,55.9940,-0.000838
27.271,56.0157,-0.000838
27.287,56.0373,-0.000838
27.304,56.0592,-0.000838
27.320,56.0820,-0.000838
27.352,56.1261,-0.000800
27.383,56.1696,-0.000800
27.398,56.1901,-0.000800
27.413,56.2128,-0.000800
27.430,56.2358,-0.000800
27.446,56.2590,-0.000800
27.463,56.2851,-0.000800
27.485,56.3181,-0.000800
27.501,56.3426,-0.000800
27.517,56.3652,-0.000800
27.533,56.3899,-0.000800
27.549,56.4140,-0.000800
27.565,56.4391,-0.000810
27.581,56.4638,-0.000810
27.597,56.4888,-0.000810
27.613,56.5149,-0.000810
27.629,56.5394,-0.000810
27.645,56.5647,-0.000810
27.661,56.5918,-0.000810
27.677,56.6183,-0.000810
27.693,56.6430,-0.000810
27.709,56.6694,-0.000810
27.725,56.6968,-0.000810
27.741,56.7235,-0.000810
27.758,56.7520,-0.000810
27.775,56.7813,-0.000810
27.800,56.8243,-0.000574
27.821,56.8603,-0.000574
27.837,56.8883,-0.000574
27.853,56.9168,-0.000574
27.868,56.9444,-0.000574
27.885,56.9740,-0.000574
27.901,57.0024,-0.000574
27.916,57.0311,-0.000574
27.933,57.0600,-0.000574
27.948,57.0894,-0.000574
27.965,57.1207,-0.000574
27.981,57.1493,-0.000574
27.997,57.1791,-0.000574
28.013,57.2092,-0.000574
28.028,57.2393,-0.000574
28.044,57.2698,-0.000574
28.061,57.3009,-0.000339
28.077,57.3332,-0.000339
28.092,57.3627,-0.000339
28.109,57.3938,-0.000339
28.125,57.4272,-0.000339
28.141,57.4582,-0.000339
28.157,57.4901,-0.000339
28.172,57.5206,-0.000339
28.189,57.5543,-0.000339
28.205,57.5859,-0.000339
28.221,57.6191,-0.000339
28.237,57.6514,-0.000339
28.252,57.6853,-0.000339
28.269,57.7179,-0.000339
28.284,57.7501,-0.000339
28.300,57.7841,-0.000339
28.316,57.8182,-0.000339
28.332,57.8518,-0.000339
28.349,57.8873,-0.000452
28.365,57.9217,-0.000452
28.381,57.9543,-0.000452
28.396,57.9868,-0.000452
28.413,58.0206,-0.000452
28.429,58.0536,-0.000452
28.444,58.0856,-0.000452
28.460,58.1183,-0.000452
28.476,58.1505,-0.000452
28.496,58.1922,-0.000452
28.524,58.2469,-0.000452
28.554,58.3059,-0.000452
28.570,58.3380,-0.000452
28.586,58.3675,-0.000452
28.601,58.3983,-0.000452
28.633,58.4588,-0.000452
28.664,58.5161,-0.000452
28.681,58.5481,-0.000452
28.697,58.5781,-0.000452
28.714,58.6091,-0.000452
28.741,58.6599,-0.000452
28.760,58.6943,-0.000452
28.777,58.7247,-0.000452
28.793,58.7534,-0.000452
28.809,58.7823,-0.000452
28.834,58.8254,-0.000452
28.864,58.8780,-0.000395
28.895,58.9310,-0.000395
28.925,58.9823,-0.000395
28.956,59.0339,-0.000395
28.987,59.0854,-0.000395
29.009,59.1214,-0.000395
29.034,59.1604,-0.000395
29.051,59.1886,-0.000395
29.066,59.2115,-0.000395
29.095,59.2574,-0.000452
29.115,59.2888,-0.000452
29.141,59.3274,-0.000452
29.160,59.3560,-0.000452
29.176,59.3803,-0.000452
29.193,59.4045,-0.000452
29.208,59.4271,-0.000452
29.224,59.4505,-0.000452
29.240,59.4747,-0.000452
29.257,59.4975,-0.000452
29.272,59.5197,-0.000452
29.288,59.5427,-0.000452
29.304,59.5651,-0.000452
29.320,59.5871,-0.000508
29.336,59.6094,-0.000508
29.352,59.6307,-0.000508
29.368,59.6530,-0.000508
29.384,59.6740,-0.000508
29.400,59.6951,-0.000508
29.416,59.7162,-0.000508
29.432,59.7379,-0.000508
29.448,59.7581,-0.000508
29.464,59.7787,-0.000508
29.480,59.7989,-0.000508
29.496,59.8186,-0.000508
29.512,59.8385,-0.000508
29.528,59.8581,-0.000508
29.545,59.8790,-0.000508
29.572,59.9118,-0.000612
29.592,59.9357,-0.000612
29.608,59.9542,-0.000612
29.624,59.9724,-0.000612
29.640,59.9911,-0.000612
29.656,60.0090,-0.000612
29.672,60.0273,-0.000612
29.688,60.0452,-0.000612
29.704,60.0621,-0.000612
29.721,60.0799,-0.000612
29.736,60.0970,-0.000612
29.752,60.1135,-0.000612
29.768,60.1304,-0.000612
29.784,60.1476,-0.000612
29.800,60.1634,-0.000612
29.817,60.1810,-0.000678
29.832,60.1955,-0.000678
29.848,60.2113,-0.000678
29.864,60.2271,-0.000678
29.880,60.2424,-0.000678
29.896,60.2578,-0.000678
29.912,60.2728,-0.000678
29.928,60.2882,-0.000678
29.945,60.3034,-0.000678
29.960,60.3181,-0.000678
29.976,60.3316,-0.000678
29.992,60.3457,-0.000678
30.008,60.3592,-0.000678
30.025,60.3739,-0.000678
30.052,60.3966,-0.000687
30.072,60.4129,-0.000687
30.088,60.4261,-0.000687
30.104,60.4387,-0.000687
30.120,60.4515,-0.000687
30.151,60.4748,-0.000687
30.167,60.4867,-0.000687
30.183,60.4981,-0.000687
30.199,60.5100,-0.000687
30.215,60.5213,-0.000687
30.231,60.5326,-0.000687
30.247,60.5433,-0.000687
30.264,60.5552,-0.000687
30.280,60.5659,-0.000687
30.300,60.5790,-0.000687
30.331,60.5987,-0.000687
30.362,60.6171,-0.000687
30.393,60.6356,-0.000687
30.424,60.6519,-0.000687
30.439,60.6602,-0.000687
30.455,60.6694,-0.000687
30.471,60.6771,-0.000687
30.487,60.6853,-0.000687
30.503,60.6932,-0.000687
30.520,60.7012,-0.000687
30.535,60.7085,-0.000687
30.552,60.7159,-0.000687
30.567,60.7226,-0.000659
30.583,60.7299,-0.000659
30.598,60.7363,-0.000659
30.615,60.7432,-0.000659
30.631,60.7495,-0.000659
30.646,60.7554,-0.000659
30.663,60.7616,-0.000659
30.685,60.7693,-0.000659
30.701,60.7747,-0.000659
30.717,60.7802,-0.000659
30.733,60.7851,-0.000659
30.754,60.7918,-0.000659
30.777,60.7983,-0.000659
30.797,60.8037,-0.000659
30.813,60.8079,-0.000659
30.828,60.8118,-0.000659
30.845,60.8155,-0.000706
30.861,60.8191,-0.000706
30.878,60.8227,-0.000706
30.893,60.8258,-0.000706
30.908,60.8285,-0.000706
30.925,60.8315,-0.000706
30.941,60.8341,-0.000706
30.956,60.8363,-0.000706
30.973,60.8386,-0.000706
30.989,60.8407,-0.000706
31.005,60.8425,-0.000706
31.020,60.8440,-0.000706
31.037,60.8455,-0.000706
31.054,60.8469,-0.000706
31.070,60.8479,-0.000706
31.086,60.8486,-0.000725
31.116,60.8497,-0.000725
31.134,60.8500,-0.000725
31.149,60.8501,-0.000725
31.165,60.8501,-0.000725
31.180,60.8501,-0.000725
31.196,60.8501,-0.000725
31.212,60.8501,-0.000725
31.237,60.8501,-0.000725
31.252,60.8501,-0.000725
31.269,60.8501,-0.000725
31.285,60.8501,-0.000725
31.301,60.8501,-0.000725
31.316,60.8501,-0.000725
31.332,60.8501,-0.000781
31.349,60.8501,-0.000781
31.372,60.8501,-0.000781
31.396,60.8501,-0.000781
31.412,60.8501,-0.000781
31.429,60.8501,-0.000781
31.445,60.8501,-0.000781
31.461,60.8501,-0.000781
31.477,60.8501,-0.000781
31.493,60.8501,-0.000781
31.509,60.8501,-0.000781
31.525,60.8501,-0.000781
31.541,60.8501,-0.000781
31.557,60.8501,-0.000781
31.573,60.8501,-0.000781
31.588,60.8501,-0.000866
31.604,60.8501,-0.000866
31.621,60.8501,-0.000866
31.637,60.8501,-0.000866
31.652,60.8501,-0.000866
31.668,60.8501,-0.000866
31.685,60.8501,-0.000866
31.700,60.8501,-0.000866
31.716,60.8501,-0.000866
31.732,60.8501,-0.000866
31.749,60.8501,-0.000866
31.765,60.8501,-0.000866
31.794,60.8501,-0.000866
31.810,60.8501,-0.000866
31.825,60.8501,-0.000828
31.841,60.8501,-0.000828
31.858,60.8501,-0.000828
31.880,60.8501,-0.000828
31.907,60.8501,-0.000828
31.923,60.8501,-0.000828
31.938,60.8501,-0.000828
31.969,60.8501,-0.000828
31.992,60.8501,-0.000828
32.016,60.8501,-0.000828
32.034,60.8501,-0.000828
32.050,60.8501,-0.000828
32.065,60.8501,-0.000828
32.082,60.8501,-0.000828
32.097,60.8501,-0.000828
32.115,60.8501,-0.000828
32.139,60.8501,-0.000828
32.155,60.8501,-0.000828
32.186,60.8501,-0.000828
32.217,60.8501,-0.000828
32.233,60.8501,-0.000828
32.263,60.8501,-0.000828
32.293,60.8501,-0.000828
32.316,60.8501,-0.000828
32.332,60.8501,-0.000828
32.348,60.8501,-0.000838
32.365,60.8501,-0.000838
32.380,60.8501,-0.000838
32.396,60.8501,-0.000838
32.412,60.8501,-0.000838
32.429,60.8501,-0.000838
32.444,60.8501,-0.000838
32.460,60.8501,-0.000838
32.477,60.8501,-0.000838
32.492,60.8501,-0.000838
32.508,60.8501,-0.000838
32.524,60.8501,-0.000838
32.541,60.8501,-0.000838
32.556,60.8501,-0.000838
32.572,60.8501,-0.000885
32.588,60.8501,-0.000885
32.604,60.8501,-0.000885
32.621,60.8501,-0.000885
32.636,60.8501,-0.000885
32.652,60.8501,-0.000885
32.669,60.8501,-0.000885
32.684,60.8501,-0.000885
32.700,60.8501,-0.000885
32.716,60.8501,-0.000885
32.732,60.8501,-0.000885
32.748,60.8501,-0.000885
32.764,60.8501,-0.000885
32.780,60.8501,-0.000885
32.796,60.8501,-0.000885
32.812,60.8501,-0.000885
32.828,60.8501,-0.000885
32.844,60.8501,-0.000904
32.860,60.8501,-0.000904
32.876,60.8501,-0.000904
32.892,60.8501,-0.000904
32.909,60.8501,-0.000904
32.924,60.8501,-0.000904
32.940,60.8501,-0.000904
32.956,60.8501,-0.000904
32.972,60.8501,-0.000904
32.988,60.8501,-0.000904
33.004,60.8501,-0.000904
33.020,60.8501,-0.000904
33.040,60.8501,-0.000904
33.063,60.8501,-0.000904
33.084,60.8501,-0.000894
33.100,60.8501,-0.000894
33.116,60.8501,-0.000894
33.132,60.8501,-0.000894
33.148,60.8501,-0.000894
33.164,60.8501,-0.000894
33.180,60.8501,-0.000894
33.196,60.8501,-0.000894
33.212,60.8501,-0.000894
33.228,60.8501,-0.000894
33.244,60.8501,-0.000894
33.260,60.8501,-0.000894
33.276,60.8501,-0.000894
33.292,60.8501,-0.000894
33.308,60.8501,-0.000913
33.324,60.8501,-0.000913
33.340,60.8501,-0.000913
33.356,60.8501,-0.000913
33.372,60.8501,-0.000913
33.403,60.8501,-0.000913
33.419,60.8501,-0.000913
33.435,60.8501,-0.000913
33.451,60.8501,-0.000913
33.468,60.8501,-0.000913
33.483,60.8501,-0.000913
33.500,60.8501,-0.000913
33.515,60.8501,-0.000913
33.531,60.8501,-0.000913
33.547,60.8501,-0.000913
33.563,60.8501,-0.000875
33.579,60.8501,-0.000875
33.594,60.8501,-0.000875
33.611,60.8501,-0.000875
33.626,60.8501,-0.000875
33.643,60.8501,-0.000875
33.659,60.8501,-0.000875
33.675,60.8501,-0.000875
33.691,60.8501,-0.000875
33.707,60.8501,-0.000875
33.723,60.8501,-0.000875
33.739,60.8501,-0.000875
33.755,60.8501,-0.000875
33.772,60.8501,-0.000875
33.789,60.8501,-0.000875
33.819,60.8501,-0.000866
33.836,60.8501,-0.000866
33.851,60.8501,-0.000866
33.867,60.8501,-0.000866
33.883,60.8501,-0.000866
33.900,60.8501,-0.000866
33.915,60.8501,-0.000866
33.931,60.8501,-0.000866
33.956,60.8501,-0.000866
33.972,60.8501,-0.000866
33.988,60.8501,-0.000866
34.004,60.8501,-0.000866
34.023,60.8501,-0.000866
34.049,60.8501,-0.000866
34.068,60.8501,-0.000885
34.084,60.8501,-0.000885
34.100,60.8501,-0.000885
34.116,60.8501,-0.000885
34.132,60.8501,-0.000885
34.148,60.8501,-0.000885
34.164,60.8501,-0.000885
34.180,60.8501,-0.000885
34.196,60.8501,-0.000885
34.212,60.8501,-0.000885
34.228,60.8501,-0.000885
34.244,60.8501,-0.000885
34.260,60.8501,-0.000885
34.275,60.8501,-0.000885
34.292,60.8501,-0.000885
34.308,60.8501,-0.000904
34.324,60.8501,-0.000904
34.340,60.8501,-0.000904
34.356,60.8501,-0.000904
34.372,60.8501,-0.000904
34.388,60.8501,-0.000904
34.403,60.8501,-0.000904
34.420,60.8501,-0.000904
34.435,60.8501,-0.000904
34.451,60.8501,-0.000904
34.469,60.8501,-0.000904
34.495,60.8501,-0.000904
34.510,60.8501,-0.000904
34.526,60.8501,-0.000904
34.542,60.8501,-0.000904
34.558,60.8501,-0.000904
34.574,60.8501,-0.000904
34.590,60.8501,-0.000913
34.605,60.8501,-0.000913
34.622,60.8501,-0.000913
34.638,60.8501,-0.000913
34.653,60.8501,-0.000913
34.670,60.8501,-0.000913
34.686,60.8501,-0.000913
34.710,60.8501,-0.000913
34.742,60.8501,-0.000913
34.757,60.8501,-0.000913
34.788,60.8501,-0.000913
34.818,60.8501,-0.000913
34.833,60.8501,-0.000875
34.849,60.8501,-0.000875
34.880,60.8501,-0.000875
34.911,60.8501,-0.000875
34.930,60.8501,-0.000875
34.957,60.8501,-0.000875
34.973,60.8501,-0.000875
34.990,60.8501,-0.000875
35.006,60.8501,-0.000875
35.022,60.8501,-0.000875
35.046,60.8501,-0.000875
35.062,60.8501,-0.000875
35.079,60.8501,-0.000866
35.094,60.8501,-0.000866
35.118,60.8501,-0.000866
35.142,60.8501,-0.000866
35.158,60.8501,-0.000866
35.175,60.8501,-0.000866
35.190,60.8501,-0.000866
35.207,60.8501,-0.000866
35.222,60.8501,-0.000866
35.239,60.8501,-0.000866
35.255,60.8501,-0.000866
35.270,60.8501,-0.000866
35.286,60.8501,-0.000866
35.303,60.8501,-0.000866
35.319,60.8501,-0.000885
35.334,60.8501,-0.000885
35.351,60.8501,-0.000885
35.367,60.8501,-0.000885
35.383,60.8501,-0.000885
35.399,60.8501,-0.000885
35.417,60.8501,-0.000885
35.433,60.8499,-0.000885
35.449,60.8494,-0.000885
35.465,60.8488,-0.000885
35.480,60.8480,-0.000885
35.496,60.8470,-0.000885
35.527,60.8445,-0.000885
35.551,60.8421,-0.000885
35.573,60.8394,-0.000885
35.590,60.8372,-0.000885
35.607,60.8347,-0.000866
35.635,60.8300,-0.000866
35.654,60.8268,-0.000866
35.671,60.8236,-0.000866
35.686,60.8203,-0.000866
35.702,60.8168,-0.000866
35.718,60.8132,-0.000866
35.734,60.8091,-0.000866
35.751,60.8050,-0.000866
35.766,60.8010,-0.000866
35.782,60.7962,-0.000866
35.798,60.7917,-0.000866
35.814,60.7870,-0.000772
35.830,60.7819,-0.000772
35.847,60.7762,-0.000772
35.866,60.7697,-0.000772
35.897,60.7582,-0.000772
35.928,60.7468,-0.000772
35.958,60.7346,-0.000772
35.975,60.7277,-0.000772
35.990,60.7209,-0.000772
36.006,60.7136,-0.000772
36.022,60.7061,-0.000772
36.038,60.6982,-0.000772
36.054,60.6911,-0.000772
36.070,60.6831,-0.000715
36.095,60.6698,-0.000715
36.112,60.6612,-0.000715
36.127,60.6529,-0.000715
36.143,60.6444,-0.000715
36.160,60.6351,-0.000715
36.175,60.6260,-0.000715
36.192,60.6162,-0.000715
36.207,60.6072,-0.000715
36.224,60.5967,-0.000715
36.239,60.5872,-0.000715
36.256,60.5766,-0.000715
36.271,60.5667,-0.000715
36.287,60.5556,-0.000715
36.303,60.5450,-0.000715
36.319,60.5346,-0.000744
36.335,60.5233,-0.000744
36.351,60.5114,-0.000744
36.367,60.5000,-0.000744
36.383,60.4887,-0.000744
36.399,60.4758,-0.000744
36.427,60.4546,-0.000744
36.447,60.4395,-0.000744
36.463,60.4271,-0.000744
36.479,60.4142,-0.000744
36.495,60.4003,-0.000744
36.511,60.3878,-0.000744
36.527,60.3745,-0.000744
36.543,60.3602,-0.000744
36.559,60.3468,-0.000715
36.575,60.3328,-0.000715
36.591,60.3184,-0.000715
36.607,60.3035,-0.000715
36.623,60.2895,-0.000715
36.647,60.2671,-0.000715
36.663,60.2508,-0.000715
36.679,60.2366,-0.000715
36.695,60.2212,-0.000715
36.711,60.2054,-0.000715
36.727,60.1887,-0.000715
36.743,60.1734,-0.000715
36.758,60.1573,-0.000715
36.776,60.1397,-0.000715
36.806,60.1081,-0.000715
36.828,60.0835,-0.000715
36.853,60.0565,-0.000715
36.871,60.0378,-0.000715
36.887,60.0195,-0.000715
36.903,60.0015,-0.000715
36.919,59.9833,-0.000715
36.935,59.9652,-0.000715
36.951,59.9465,-0.000715
36.967,59.9279,-0.000715
36.983,59.9088,-0.000715
36.999,59.8897,-0.000715
37.015,59.8696,-0.000715
37.030,59.8509,-0.000715
37.047,59.8304,-0.000715
37.063,59.8108,-0.000687
37.079,59.7901,-0.000687
37.095,59.7700,-0.000687
37.111,59.7494,-0.000687
37.127,59.7289,-0.000687
37.143,59.7080,-0.000687
37.159,59.6865,-0.000687
37.188,59.6470,-0.000687
37.204,59.6259,-0.000687
37.220,59.6047,-0.000687
37.235,59.5827,-0.000687
37.253,59.5584,-0.000687
37.268,59.5373,-0.000687
37.284,59.5151,-0.000687
37.300,59.4921,-0.000687
37.316,59.4691,-0.000687
37.332,59.4454,-0.000687
37.348,59.4224,-0.000631
37.364,59.3993,-0.000631
37.379,59.3754,-0.000631
37.396,59.3510,-0.000631
37.411,59.3271,-0.000631
37.428,59.3022,-0.000631
37.444,59.2771,-0.000631
37.460,59.2528,-0.000631
37.475,59.2288,-0.000631
37.492,59.2026,-0.000631
37.507,59.1779,-0.000631
37.523,59.1526,-0.000631
37.540,59.1262,-0.000631
37.556,59.1000,-0.000631
37.571,59.0748,-0.000631
37.587,59.0483,-0.000631
37.604,59.0211,-0.000631
37.620,58.9946,-0.000631
37.635,58.9678,-0.000631
37.652,58.9408,-0.000631
37.668,58.9136,-0.000631
37.684,58.8856,-0.000631
37.709,58.8411,-0.000631
37.725,58.8129,-0.000631
37.742,58.7841,-0.000631
37.758,58.7556,-0.000631
37.774,58.7277,-0.000631
37.790,58.6989,-0.000631
37.806,58.6698,-0.000631
37.821,58.6406,-0.000631
37.837,58.6120,-0.000546
37.854,58.5806,-0.000546
37.869,58.5527,-0.000546
37.886,58.5216,-0.000546
37.902,58.4921,-0.000546
37.917,58.4617,-0.000546
37.935,58.4283,-0.000546
37.965,58.3692,-0.000546
37.981,58.3383,-0.000546
37.999,58.3054,-0.000546
38.014,58.2750,-0.000546
38.030,58.2431,-0.000546
38.045,58.2126,-0.000546
38.064,58.1760,-0.000546
38.090,58.1220,-0.000405
38.109,58.0833,-0.000405
38.126,58.0488,-0.000405
38.142,58.0157,-0.000405
38.157,57.9837,-0.000405
38.173,57.9509,-0.000405
38.191,57.9140,-0.000405
38.214,57.8646,-0.000405
38.230,57.8320,-0.000405
38.251,57.7852,-0.000405
38.267,57.7515,-0.000405
38.283,57.7180,-0.000405
38.299,57.6845,-0.000405
38.323,57.6349,-0.000405
38.353,57.5738,-0.000339
38.383,57.5120,-0.000339
38.399,57.4802,-0.000339
38.415,57.4482,-0.000339
38.446,57.3866,-0.000339
38.462,57.3539,-0.000339
38.494,57.2909,-0.000339
38.523,57.2359,-0.000339
38.539,57.2049,-0.000339
38.557,57.1681,-0.000339
38.576,57.1344,-0.000339
38.601,57.0889,-0.000395
38.619,57.0540,-0.000395
38.635,57.0252,-0.000395
38.651,56.9958,-0.000395
38.667,56.9671,-0.000395
38.683,56.9369,-0.000395
38.699,56.9089,-0.000395
38.715,56.8812,-0.000395
38.732,56.8502,-0.000395
38.747,56.8244,-0.000395
38.763,56.7960,-0.000395
38.779,56.7689,-0.000395
38.801,56.7310,-0.000395
38.817,56.7029,-0.000395
38.833,56.6766,-0.000424
38.849,56.6493,-0.000424
38.865,56.6231,-0.000424
38.881,56.5969,-0.000424
38.898,56.5682,-0.000424
38.925,56.5253,-0.000424
38.945,56.4926,-0.000424
38.961,56.4674,-0.000424
38.977,56.4418,-0.000424
38.994,56.4152,-0.000424
39.009,56.3916,-0.000424
39.025,56.3674,-0.000424
39.041,56.3416,-0.000424
39.057,56.3183,-0.000424
39.074,56.2935,-0.000311
39.089,56.2696,-0.000311
39.105,56.2462,-0.000311
39.121,56.2228,-0.000311
39.137,56.1996,-0.000311
39.153,56.1757,-0.000311
39.169,56.1533,-0.000311
39.185,56.1307,-0.000311
39.201,56.1073,-0.000311
39.218,56.0838,-0.000311
39.234,56.0616,-0.000311
39.264,56.0211,-0.000311
39.281,55.9978,-0.000311
39.298,55.9743,-0.000311
39.325,55.9389,-0.000311
39.345,55.9129,-0.000169
39.361,55.8922,-0.000169
39.377,55.8722,-0.000169
39.393,55.8517,-0.000169
39.409,55.8310,-0.000169
39.425,55.8119,-0.000169
39.441,55.7922,-0.000169
39.457,55.7723,-0.000169
39.473,55.7521,-0.000169
39.489,55.7343,-0.000169
39.505,55.7153,-0.000169
39.521,55.6967,-0.000169
39.537,55.6782,-0.000169
39.553,55.6599,-0.000028
39.568,55.6418,-0.000028
39.585,55.6231,-0.000028
39.601,55.6053,-0.000028
39.617,55.5882,-0.000028
39.633,55.5703,-0.000028
39.649,55.5532,-0.000028
39.665,55.5368,-0.000028
39.681,55.5198,-0.000028
39.697,55.5036,-0.000028
39.719,55.4799,-0.000028
39.734,55.4651,-0.000028
39.757,55.4421,-0.000028
39.777,55.4233,-0.000028
39.793,55.4075,-0.000028
39.820,55.3823,-0.000009
39.841,55.3620,-0.000009
39.858,55.3472,-0.000009
39.881,55.3259,-0.000009
39.902,55.3079,-0.000009
39.918,55.2939,-0.000009
39.933,55.2802,-0.000009
39.950,55.2655,-0.000009
39.966,55.2529,-0.000009
39.981,55.2402,-0.000009
39.998,55.2269,-0.000009
40.014,55.2141,-0.000009
40.030,55.2016,-0.000009
40.046,55.1894,-0.000009
40.062,55.1769,-0.000056
40.078,55.1650,-0.000056
40.094,55.1533,-0.000056
40.109,55.1419,-0.000056
40.126,55.1304,-0.000056
40.146,55.1159,-0.000056
40.176,55.0958,-0.000056
40.203,55.0778,-0.000056
40.222,55.0658,-0.000056
40.238,55.0557,-0.000056
40.254,55.0462,-0.000056
40.272,55.0352,-0.000056
40.297,55.0201,-0.000056
40.317,55.0086,-0.000038
40.334,54.9994,-0.000038
40.350,54.9910,-0.000038
40.365,54.9827,-0.000038
40.382,54.9740,-0.000038
40.398,54.9657,-0.000038
40.414,54.9580,-0.000038
40.430,54.9499,-0.000038
40.452,54.9394,-0.000038
40.469,54.9322,-0.000038
40.485,54.9254,-0.000038
40.501,54.9184,-0.000038
40.517,54.9116,-0.000038
40.533,54.9052,-0.000038
40.549,54.8989,-0.000038
40.566,54.8925,-0.000066
40.581,54.8871,-0.000066
40.596,54.8811,-0.000066
40.612,54.8759,-0.000066
40.629,54.8703,-0.000066
40.645,54.8654,-0.000066
40.661,54.8604,-0.000066
40.677,54.8554,-0.000066
40.694,54.8505,-0.000066
40.710,54.8463,-0.000066
40.731,54.8409,-0.000066
40.761,54.8339,-0.000066
40.791,54.8272,-0.000066
40.823,54.8212,-0.000066
40.854,54.8163,-0.000489
40.869,54.8139,-0.000489
40.884,54.8118,-0.000489
40.901,54.8097,-0.000489
40.917,54.8078,-0.000489
40.932,54.8063,-0.000489
40.949,54.8048,-0.000489
40.972,54.8030,-0.000489
40.989,54.8020,-0.000489
41.004,54.8012,-0.000489
41.021,54.8007,-0.000489
41.036,54.8004,-0.000489
41.053,54.8001,-0.000489
41.068,54.8001,-0.000857
41.084,54.8001,-0.000857
41.101,54.8001,-0.000857
41.117,54.8001,-0.000857
41.133,54.8001,-0.000857
41.148,54.8001,-0.000857
41.165,54.8001,-0.000857
41.180,54.8001,-0.000857
41.197,54.8001,-0.000857
41.212,54.8001,-0.000857
41.229,54.8004,-0.000857
41.245,54.8009,-0.000857
41.260,54.8015,-0.000857
41.276,54.8022,-0.000857
41.293,54.8034,-0.000857
41.308,54.8045,-0.000781
41.324,54.8058,-0.000781
41.340,54.8074,-0.000781
41.357,54.8093,-0.000781
41.372,54.8113,-0.000781
41.388,54.8134,-0.000781
41.404,54.8158,-0.000781
41.420,54.8184,-0.000781
41.436,54.8211,-0.000781
41.452,54.8239,-0.000781
41.468,54.8272,-0.000781
41.493,54.8325,-0.000781
41.509,54.8361,-0.000781
41.525,54.8401,-0.000781
41.541,54.8442,-0.000781
41.557,54.8482,-0.000819
41.573,54.8526,-0.000819
41.590,54.8574,-0.000819
41.605,54.8619,-0.000819
41.621,54.8670,-0.000819
41.637,54.8722,-0.000819
41.654,54.8778,-0.000819
41.669,54.8831,-0.000819
41.685,54.8888,-0.000819
41.702,54.8954,-0.000819
41.718,54.9015,-0.000819
41.733,54.9075,-0.000819
41.749,54.9141,-0.000819
41.769,54.9222,-0.000819
41.796,54.9342,-0.000819
41.813,54.9421,-0.000857
41.829,54.9495,-0.000857
41.845,54.9573,-0.000857
41.861,54.9652,-0.000857
41.877,54.9736,-0.000857
41.898,54.9842,-0.000857
41.913,54.9922,-0.000857
41.935,55.0044,-0.000857
41.967,55.0224,-0.000857
41.997,55.0400,-0.000857
42.021,55.0549,-0.000857
42.037,55.0649,-0.000857
42.053,55.0750,-0.000828
42.069,55.0854,-0.000828
42.085,55.0962,-0.000828
42.101,55.1068,-0.000828
42.117,55.1180,-0.000828
42.133,55.1292,-0.000828
42.150,55.1411,-0.000828
42.165,55.1521,-0.000828
42.181,55.1636,-0.000828
42.197,55.1759,-0.000828
42.213,55.1884,-0.000828
42.229,55.2001,-0.000828
42.245,55.2129,-0.000828
42.262,55.2266,-0.000828
42.290,55.2487,-0.000828
42.309,55.2650,-0.000838
42.325,55.2792,-0.000838
42.342,55.2927,-0.000838
42.357,55.3060,-0.000838
42.373,55.3199,-0.000838
42.390,55.3354,-0.000838
42.405,55.3486,-0.000838
42.421,55.3633,-0.000838
42.437,55.3782,-0.000838
42.453,55.3932,-0.000838
42.469,55.4086,-0.000838
42.485,55.4245,-0.000838
42.501,55.4396,-0.000838
42.517,55.4558,-0.000838
42.533,55.4718,-0.000838
42.564,55.5036,-0.000838
42.580,55.5200,-0.000838
42.596,55.5366,-0.000791
42.612,55.5534,-0.000791
42.628,55.5713,-0.000791
42.644,55.5885,-0.000791
42.660,55.6057,-0.000791
42.676,55.6241,-0.000791
42.694,55.6445,-0.000791
42.714,55.6667,-0.000791
42.737,55.6936,-0.000791
42.756,55.7162,-0.000791
42.772,55.7344,-0.000791
42.788,55.7541,-0.000791
42.804,55.7728,-0.000791
42.820,55.7932,-0.000791
42.836,55.8122,-0.000791
42.852,55.8315,-0.000828
42.867,55.8516,-0.000828
42.884,55.8721,-0.000828
42.901,55.8935,-0.000828
42.916,55.9131,-0.000828
42.932,55.9351,-0.000828
42.948,55.9559,-0.000828
42.964,55.9765,-0.000828
42.980,55.9977,-0.000828
42.996,56.0193,-0.000828
43.012,56.0421,-0.000828
43.028,56.0642,-0.000828
43.044,56.0853,-0.000828
43.061,56.1094,-0.000828
43.086,56.1448,-0.000828
43.102,56.1679,-0.000828
43.117,56.1907,-0.000847
43.133,56.2140,-0.000847
43.149,56.2373,-0.000847
43.166,56.2627,-0.000847
43.182,56.2863,-0.000847
43.198,56.3101,-0.000847
43.214,56.3339,-0.000847
43.230,56.3584,-0.000847
43.246,56.3832,-0.000847
43.262,56.4082,-0.000847
43.278,56.4330,-0.000847
43.294,56.4591,-0.000847
43.309,56.4834,-0.000847
43.325,56.5090,-0.000847
43.342,56.5350,-0.000744
43.357,56.5609,-0.000744
43.373,56.5869,-0.000744
43.389,56.6134,-0.000744
43.405,56.6396,-0.000744
43.423,56.6690,-0.000744
43.438,56.6941,-0.000744
43.453,56.7206,-0.000744
43.469,56.7478,-0.000744
43.486,56.7764,-0.000744
43.501,56.8036,-0.000744
43.518,56.8325,-0.000744
43.533,56.8594,-0.000744
43.550,56.8884,-0.000744
43.566,56.9181,-0.000744
43.581,56.9450,-0.000744
43.597,56.9738,-0.000744
43.619,57.0152,-0.000480
43.643,57.0576,-0.000480
43.665,57.0983,-0.000480
43.683,57.1324,-0.000480
43.699,57.1625,-0.000480
43.726,57.2139,-0.000480
43.746,57.2527,-0.000480
43.763,57.2849,-0.000480
43.778,57.3143,-0.000480
43.794,57.3462,-0.000480
43.811,57.3781,-0.000480
43.827,57.4097,-0.000480
43.842,57.4407,-0.000358
43.859,57.4737,-0.000358
43.875,57.5059,-0.000358
43.890,57.5382,-0.000358
43.906,57.5704,-0.000358
43.923,57.6060,-0.000358
43.942,57.6449,-0.000358
43.973,57.7098,-0.000358
44.004,57.7743,-0.000358
44.034,57.8396,-0.000358
44.052,57.8762,-0.000358
44.080,57.9347,-0.000489
44.098,57.9725,-0.000489
44.115,58.0074,-0.000489
44.131,58.0385,-0.000489
44.147,58.0722,-0.000489
44.170,58.1201,-0.000489
44.186,58.1526,-0.000489
44.202,58.1834,-0.000489
44.219,58.2175,-0.000489
44.242,58.2637,-0.000489
44.265,58.3079,-0.000489
44.282,58.3398,-0.000489
44.298,58.3708,-0.000489
44.314,58.4011,-0.000489
44.331,58.4323,-0.000499
44.346,58.4623,-0.000499
44.363,58.4933,-0.000499
44.378,58.5219,-0.000499
44.395,58.5521,-0.000499
44.410,58.5809,-0.000499
44.427,58.6110,-0.000499
44.443,58.6400,-0.000499
44.458,58.6676,-0.000499
44.475,58.6989,-0.000499
44.490,58.7261,-0.000499
44.506,58.7536,-0.000499
44.522,58.7812,-0.000499
44.538,58.8096,-0.000499
44.555,58.8376,-0.000499
44.570,58.8640,-0.000471
44.586,58.8920,-0.000471
44.602,58.9185,-0.000471
44.618,58.9455,-0.000471
44.635,58.9734,-0.000471
44.650,58.9986,-0.000471
44.666,59.0256,-0.000471
44.682,59.0524,-0.000471
44.698,59.0772,-0.000471
44.726,59.1232,-0.000471
44.742,59.1475,-0.000471
44.758,59.1734,-0.000471
44.774,59.1984,-0.000471
44.791,59.2245,-0.000471
44.806,59.2479,-0.000471
44.822,59.2723,-0.000518
44.838,59.2965,-0.000518
44.855,59.3214,-0.000518
44.871,59.3447,-0.000518
44.887,59.3684,-0.000518
44.902,59.3906,-0.000518
44.919,59.4157,-0.000518
44.946,59.4541,-0.000518
44.966,59.4833,-0.000518
44.982,59.5059,-0.000518
44.998,59.5283,-0.000518
45.014,59.5494,-0.000518
45.030,59.5721,-0.000518
45.046,59.5938,-0.000518
45.062,59.6146,-0.000593
45.078,59.6358,-0.000593
45.094,59.6575,-0.000593
45.110,59.6788,-0.000593
45.126,59.6991,-0.000593
45.142,59.7199,-0.000593
45.158,59.7402,-0.000593
45.174,59.7608,-0.000593
45.190,59.7799,-0.000593
45.206,59.8003,-0.000593
45.222,59.8207,-0.000593
45.238,59.8388,-0.000593
45.254,59.8582,-0.000593
45.284,59.8938,-0.000593
45.300,59.9121,-0.000593
45.316,59.9311,-0.000668
45.332,59.9487,-0.000668
45.349,59.9682,-0.000668
45.364,59.9853,-0.000668
45.380,60.0025,-0.000668
45.396,60.0202,-0.000668
45.412,60.0376,-0.000668
45.428,60.0544,-0.000668
45.444,60.0714,-0.000668
45.461,60.0890,-0.000668
45.476,60.1050,-0.000668
45.492,60.1210,-0.000668
45.508,60.1366,-0.000668
45.524,60.1530,-0.000668
45.541,60.1694,-0.000668
45.565,60.1924,-0.000668
45.580,60.2074,-0.000706
45.596,60.2219,-0.000706
45.627,60.2503,-0.000706
45.657,60.2782,-0.000706
45.673,60.2925,-0.000706
45.704,60.3189,-0.000706
45.720,60.3326,-0.000706
45.751,60.3581,-0.000706
45.767,60.3711,-0.000706
45.798,60.3961,-0.000706
45.828,60.4186,-0.000715
45.845,60.4314,-0.000715
45.860,60.4426,-0.000715
45.876,60.4546,-0.000715
45.892,60.4658,-0.000715
45.908,60.4769,-0.000715
45.924,60.4886,-0.000715
45.939,60.4989,-0.000715
45.956,60.5098,-0.000715
45.973,60.5216,-0.000715
45.998,60.5371,-0.000715
46.014,60.5472,-0.000715
46.035,60.5606,-0.000715
46.052,60.5699,-0.000715
46.068,60.5792,-0.000734
46.084,60.5884,-0.000734
46.099,60.5976,-0.000734
46.115,60.6060,-0.000734
46.131,60.6145,-0.000734
46.148,60.6235,-0.000734
46.169,60.6339,-0.000734
46.199,60.6492,-0.000734
46.230,60.6632,-0.000734
46.261,60.6769,-0.000734
46.291,60.6898,-0.000734
46.308,60.6962,-0.000734
46.324,60.7024,-0.000734
46.339,60.7084,-0.000734
46.362,60.7165,-0.000734
46.378,60.7220,-0.000734
46.393,60.7276,-0.000734
46.410,60.7328,-0.000734
46.429,60.7386,-0.000734
46.446,60.7440,-0.000734
46.462,60.7483,-0.000734
46.478,60.7529,-0.000734
46.494,60.7568,-0.000734
46.510,60.7608,-0.000734
46.526,60.7647,-0.000734
46.557,60.7715,-0.000734
46.587,60.7774,-0.000725
46.618,60.7829,-0.000725
46.633,60.7851,-0.000725
46.650,60.7875,-0.000725
46.667,60.7897,-0.000725
46.696,60.7932,-0.000725
46.714,60.7948,-0.000725
46.729,60.7960,-0.000725
46.745,60.7972,-0.000725
46.762,60.7981,-0.000725
46.777,60.7989,-0.000725
46.798,60.7996,-0.000725
46.820,60.8000,-0.000706
46.841,60.8000,-0.000706
46.859,60.8000,-0.000706
46.882,60.8000,-0.000706
46.913,60.8000,-0.000706
46.944,60.8000,-0.000706
46.974,60.8000,-0.000706
46.990,60.8000,-0.000706
47.006,60.8000,-0.000706
47.021,60.8000,-0.000706
47.052,60.8000,-0.000706
47.083,60.8000,-0.000791
47.101,60.8000,-0.000791
47.129,60.8000,-0.000791
47.146,60.8000,-0.000791
47.162,60.8000,-0.000791
47.178,60.8000,-0.000791
47.194,60.8000,-0.000791
47.209,60.8000,-0.000791
47.225,60.8000,-0.000791
47.241,60.8000,-0.000791
47.257,60.8000,-0.000791
47.274,60.8000,-0.000791
47.290,60.8000,-0.000791
47.314,60.8000,-0.000885
47.330,60.8000,-0.000885
47.362,60.8000,-0.000885
47.392,60.8000,-0.000885
47.423,60.8000,-0.000885
47.452,60.8000,-0.000885
47.483,60.8000,-0.000885
47.515,60.8000,-0.000885
47.532,60.8000,-0.000885
47.561,60.8000,-0.000847
47.577,60.8000,-0.000847
47.596,60.8000,-0.000847
47.612,60.8000,-0.000847
47.639,60.8000,-0.000847
47.658,60.8000,-0.000847
47.686,60.8000,-0.000847
47.705,60.8000,-0.000847
47.721,60.8000,-0.000847
47.737,60.8000,-0.000847
47.753,60.8000,-0.000847
47.769,60.8000,-0.000847
47.785,60.8000,-0.000847
47.801,60.8000,-0.000847
47.817,60.8000,-0.000857
47.834,60.8000,-0.000857
47.849,60.8000,-0.000857
47.865,60.8000,-0.000857
47.882,60.8000,-0.000857
47.897,60.8000,-0.000857
47.913,60.8000,-0.000857
47.929,60.8000,-0.000857
47.945,60.8000,-0.000857
47.961,60.8000,-0.000857
47.977,60.8000,-0.000857
47.993,60.8000,-0.000857
48.009,60.8000,-0.000857
48.025,60.8000,-0.000857
48.041,60.8000,-0.000857
48.057,60.8000,-0.000885
48.073,60.8000,-0.000885
48.089,60.8000,-0.000885
48.105,60.8000,-0.000885
48.121,60.8000,-0.000885
48.137,60.8000,-0.000885
48.155,60.8000,-0.000885
48.181,60.8000,-0.000885
48.201,60.8000,-0.000885
48.217,60.8000,-0.000885
48.233,60.8000,-0.000885
48.249,60.8000,-0.000885
48.265,60.8000,-0.000885
48.281,60.8000,-0.000885
48.298,60.8000,-0.000885
48.321,60.8000,-0.000847
48.337,60.8000,-0.000847
48.369,60.8000,-0.000847
48.384,60.8000,-0.000847
48.400,60.8000,-0.000847
48.416,60.8000,-0.000847
48.446,60.8000,-0.000847
48.477,60.8000,-0.000847
48.507,60.8000,-0.000847
48.537,60.8000,-0.000847
48.553,60.8000,-0.000838
48.569,60.8000,-0.000838
48.585,60.8000,-0.000838
48.601,60.8000,-0.000838
48.618,60.8000,-0.000838
48.633,60.8000,-0.000838
48.649,60.8000,-0.000838
48.665,60.8000,-0.000838
48.681,60.8000,-0.000838
48.697,60.8000,-0.000838
48.714,60.8000,-0.000838
48.729,60.8000,-0.000838
48.745,60.8000,-0.000838
48.761,60.8000,-0.000838
48.777,60.8000,-0.000838
48.794,60.8000,-0.000838
48.817,60.8000,-0.000753
48.833,60.8000,-0.000753
48.863,60.8000,-0.000753
48.879,60.8000,-0.000753
48.909,60.8000,-0.000753
48.925,60.8000,-0.000753
48.956,60.8000,-0.000753
48.987,60.8000,-0.000753
49.018,60.8000,-0.000753
49.042,60.8000,-0.000753
49.058,60.8000,-0.000753
49.073,60.8000,-0.000734
49.090,60.8000,-0.000734
49.106,60.8000,-0.000734
49.121,60.8000,-0.000734
49.137,60.8000,-0.000734
49.154,60.8000,-0.000734
49.170,60.8000,-0.000734
49.185,60.8000,-0.000734
49.202,60.8000,-0.000734
49.217,60.8000,-0.000734
49.233,60.8000,-0.000734
49.249,60.8000,-0.000734
49.266,60.8000,-0.000734
49.281,60.8000,-0.000734
49.298,60.8000,-0.000734
49.313,60.8000,-0.000781
49.329,60.8000,-0.000781
49.346,60.8000,-0.000781
49.375,60.8000,-0.000781
49.393,60.8000,-0.000781
49.411,60.8000,-0.000781
49.436,60.8000,-0.000781
49.457,60.8000,-0.000781
49.474,60.8000,-0.000781
49.489,60.8000,-0.000781
49.506,60.8000,-0.000781
49.522,60.8000,-0.000781
49.538,60.8000,-0.000781
49.553,60.8000,-0.000781
49.569,60.8000,-0.000781
49.585,60.8000,-0.000838
49.602,60.8000,-0.000838
49.617,60.8000,-0.000838
49.633,60.8000,-0.000838
49.650,60.8000,-0.000838
49.665,60.8000,-0.000838
49.682,60.8000,-0.000838
49.698,60.8000,-0.000838
49.714,60.8000,-0.000838
49.730,60.8000,-0.000838
49.746,60.8000,-0.000838
49.765,60.8000,-0.000838
49.794,60.8000,-0.000838
49.810,60.8000,-0.000838
49.825,60.8000,-0.000894
49.842,60.8000,-0.000894
49.857,60.8000,-0.000894
49.873,60.8000,-0.000894
49.890,60.8000,-0.000894
49.906,60.8000,-0.000894
49.921,60.8000,-0.000894
49.938,60.8000,-0.000894
49.954,60.8000,-0.000894
49.969,60.8000,-0.000894
49.985,60.8000,-0.000894
50.002,60.8000,-0.000894
50.018,60.8000,-0.000894
50.033,60.8000,-0.000894
50.049,60.8000,-0.000894
50.066,60.8000,-0.000894
50.081,60.8000,-0.000894
50.097,60.8000,-0.000894
50.114,60.8000,-0.000866
50.130,60.8000,-0.000866
50.145,60.8000,-0.000866
50.161,60.8000,-0.000866
50.177,60.8000,-0.000866
50.193,60.8000,-0.000866
50.210,60.8000,-0.000866
50.225,60.8000,-0.000866
50.242,60.8000,-0.000866
50.257,60.8000,-0.000866
50.274,60.8000,-0.000866
50.289,60.8000,-0.000866
50.305,60.8000,-0.000866
50.322,60.8000,-0.000866
50.337,60.8000,-0.000857
50.353,60.8000,-0.000857
50.369,60.8000,-0.000857
50.385,60.8000,-0.000857
50.402,60.8000,-0.000857
50.417,60.8000,-0.000857
50.434,60.8000,-0.000857
50.450,60.8000,-0.000857
50.465,60.8000,-0.000857
50.481,60.8000,-0.000857
50.498,60.8000,-0.000857
50.514,60.8000,-0.000857
50.529,60.8000,-0.000857
50.546,60.8000,-0.000857
50.562,60.8000,-0.000857
50.578,60.8000,-0.000857
50.593,60.8000,-0.000857
50.609,60.8000,-0.000791
50.636,60.8000,-0.000791
50.652,60.8000,-0.000791
50.668,60.8000,-0.000791
50.684,60.8000,-0.000791
50.700,60.8000,-0.000791
50.716,60.8000,-0.000791
50.732,60.8000,-0.000791
50.748,60.8000,-0.000791
50.764,60.8000,-0.000791
50.780,60.8000,-0.000791
50.796,60.8000,-0.000791
50.812,60.8000,-0.000791
50.828,60.8000,-0.000810
50.844,60.8000,-0.000810
50.860,60.8000,-0.000810
50.878,60.8000,-0.000810
50.909,60.8000,-0.000810
50.926,60.8000,-0.000810
50.955,60.8000,-0.000810
50.972,60.8000,-0.000810
50.994,60.8000,-0.000810
51.019,60.8000,-0.000810
51.036,60.8000,-0.000810
51.052,60.7999,-0.000810
51.068,60.7996,-0.000810
51.084,60.7991,-0.000819
51.100,60.7984,-0.000819
51.117,60.7975,-0.000819
51.132,60.7965,-0.000819
51.148,60.7953,-0.000819
51.171,60.7931,-0.000819
51.187,60.7913,-0.000819
51.203,60.7895,-0.000819
51.220,60.7872,-0.000819
51.237,60.7849,-0.000819
51.268,60.7797,-0.000819
51.283,60.7769,-0.000819
51.300,60.7736,-0.000819
51.315,60.7704,-0.000819
51.332,60.7669,-0.000715
51.360,60.7602,-0.000715
51.380,60.7554,-0.000715
51.395,60.7513,-0.000715
51.411,60.7469,-0.000715
51.430,60.7411,-0.000715
51.445,60.7366,-0.000715
51.467,60.7297,-0.000715
51.498,60.7193,-0.000715
51.513,60.7138,-0.000715
51.529,60.7082,-0.000715
51.559,60.6965,-0.000715
51.575,60.6901,-0.000659
51.591,60.6834,-0.000659
51.622,60.6697,-0.000659
51.638,60.6628,-0.000659
51.654,60.6554,-0.000659
51.685,60.6403,-0.000659
51.702,60.6322,-0.000659
51.729,60.6181,-0.000659
51.748,60.6081,-0.000659
51.779,60.5909,-0.000659
51.814,60.5708,-0.000659
51.842,60.5543,-0.000631
51.858,60.5445,-0.000631
51.888,60.5250,-0.000631
51.904,60.5153,-0.000631
51.920,60.5043,-0.000631
51.936,60.4935,-0.000631
51.952,60.4829,-0.000631
51.968,60.4717,-0.000631
51.984,60.4594,-0.000631
52.000,60.4487,-0.000631
52.016,60.4370,-0.000631
52.032,60.4245,-0.000631
52.048,60.4129,-0.000631
52.064,60.3999,-0.000631
52.079,60.3881,-0.000668
52.097,60.3742,-0.000668
52.112,60.3616,-0.000668
52.127,60.3492,-0.000668
52.144,60.3360,-0.000668
52.160,60.3224,-0.000668
52.176,60.3081,-0.000668
52.192,60.2947,-0.000668
52.208,60.2805,-0.000668
52.224,60.2656,-0.000668
52.251,60.2410,-0.000668
52.274,60.2201,-0.000668
52.306,60.1899,-0.000668
52.336,60.1603,-0.000715
52.366,60.1304,-0.000715
52.396,60.1001,-0.000715
52.412,60.0833,-0.000715
52.428,60.0658,-0.000715
52.459,60.0333,-0.000715
52.475,60.0170,-0.000715
52.504,59.9838,-0.000715
52.520,59.9663,-0.000715
52.536,59.9483,-0.000715
52.553,59.9291,-0.000715
52.569,59.9104,-0.000668
52.585,59.8919,-0.000668
52.601,59.8736,-0.000668
52.618,59.8533,-0.000668
52.644,59.8220,-0.000668
52.664,59.7968,-0.000668
52.680,59.7769,-0.000668
52.698,59.7555,-0.000668
52.721,59.7244,-0.000668
52.753,59.6850,-0.000668
52.768,59.6646,-0.000668
52.784,59.6436,-0.000668
52.815,59.6029,-0.000668
52.846,59.5601,-0.000612
52.877,59.5179,-0.000612
52.893,59.4943,-0.000612
52.923,59.4527,-0.000612
52.954,59.4076,-0.000612
52.969,59.3858,-0.000612
52.984,59.3628,-0.000612
53.001,59.3391,-0.000612
53.017,59.3153,-0.000612
53.033,59.2905,-0.000612
53.062,59.2459,-0.000612
53.081,59.2176,-0.000612
53.097,59.1928,-0.000602
53.112,59.1687,-0.000602
53.128,59.1434,-0.000602
53.145,59.1165,-0.000602
53.160,59.0927,-0.000602
53.177,59.0648,-0.000602
53.194,59.0359,-0.000602
53.211,59.0105,-0.000602
53.231,58.9762,-0.000602
53.247,58.9495,-0.000602
53.263,58.9227,-0.000602
53.279,58.8972,-0.000602
53.303,58.8559,-0.000602
53.319,58.8283,-0.000602
53.334,58.8012,-0.000546
53.350,58.7735,-0.000546
53.366,58.7454,-0.000546
53.382,58.7170,-0.000546
53.398,58.6885,-0.000546
53.415,58.6591,-0.000546
53.431,58.6300,-0.000546
53.446,58.6016,-0.000546
53.462,58.5712,-0.000546
53.486,58.5265,-0.000546
53.512,58.4794,-0.000546
53.540,58.4252,-0.000546
53.559,58.3917,-0.000546
53.574,58.3625,-0.000405
53.590,58.3314,-0.000405
53.607,58.2997,-0.000405
53.622,58.2688,-0.000405
53.639,58.2369,-0.000405
53.654,58.2058,-0.000405
53.671,58.1733,-0.000405
53.686,58.1418,-0.000405
53.702,58.1104,-0.000405
53.718,58.0778,-0.000405
53.735,58.0436,-0.000405
53.753,58.0046,-0.000405
53.773,57.9656,-0.000405
53.803,57.9012,-0.000405
53.834,57.8382,-0.000405
53.850,57.8029,-0.000329
53.880,57.7387,-0.000329
53.895,57.7065,-0.000329
53.912,57.6697,-0.000329
53.943,57.6065,-0.000329
53.958,57.5758,-0.000329
53.975,57.5381,-0.000329
54.004,57.4814,-0.000329
54.022,57.4442,-0.000329
54.038,57.4122,-0.000329
54.054,57.3807,-0.000329
54.070,57.3491,-0.000395
54.086,57.3174,-0.000395
54.103,57.2836,-0.000395
54.119,57.2519,-0.000395
54.143,57.2053,-0.000395
54.177,57.1391,-0.000395
54.198,57.0999,-0.000395
54.214,57.0705,-0.000395
54.230,57.0395,-0.000395
54.246,57.0102,-0.000395
54.262,56.9811,-0.000395
54.278,56.9518,-0.000395
54.294,56.9223,-0.000395
54.310,56.8946,-0.000442
54.326,56.8662,-0.000442
54.343,56.8349,-0.000442
54.367,56.7932,-0.000442
54.383,56.7652,-0.000442
54.399,56.7356,-0.000442
54.415,56.7095,-0.000442
54.431,56.6819,-0.000442
54.447,56.6551,-0.000442
54.464,56.6256,-0.000442
54.480,56.6000,-0.000442
54.495,56.5743,-0.000442
54.511,56.5472,-0.000442
54.527,56.5216,-0.000442
54.543,56.4948,-0.000442
54.559,56.4696,-0.000329
54.575,56.4432,-0.000329
54.591,56.4176,-0.000329
54.607,56.3921,-0.000329
54.623,56.3670,-0.000329
54.639,56.3431,-0.000329
54.655,56.3162,-0.000329
54.671,56.2927,-0.000329
54.687,56.2696,-0.000329
54.703,56.2452,-0.000329
54.719,56.2202,-0.000329
54.735,56.1971,-0.000329
54.751,56.1726,-0.000329
54.767,56.1505,-0.000329
54.785,56.1246,-0.000329
54.808,56.0915,-0.000329
54.838,56.0472,-0.000226
54.854,56.0263,-0.000226
54.870,56.0037,-0.000226
54.901,55.9619,-0.000226
54.932,55.9209,-0.000226
54.947,55.9001,-0.000226
54.978,55.8598,-0.000226
55.008,55.8205,-0.000226
55.039,55.7812,-0.000226
55.055,55.7622,-0.000094
55.073,55.7407,-0.000094
55.101,55.7062,-0.000094
55.119,55.6848,-0.000094
55.135,55.6654,-0.000094
55.151,55.6475,-0.000094
55.167,55.6282,-0.000094
55.183,55.6101,-0.000094
55.200,55.5904,-0.000094
55.223,55.5650,-0.000094
55.239,55.5479,-0.000094
55.254,55.5301,-0.000094
55.269,55.5146,-0.000094
55.285,55.4976,-0.000094
55.300,55.4819,-0.000094
55.331,55.4489,-0.000094
55.348,55.4320,0.000009
55.378,55.4011,0.000009
55.409,55.3711,0.000009
55.437,55.3448,0.000009
55.453,55.3296,0.000009
55.468,55.3151,0.000009
55.485,55.3001,0.000009
55.500,55.2858,0.000009
55.516,55.2715,0.000009
55.534,55.2563,0.000009
55.551,55.2408,0.000009
55.582,55.2150,0.000066
55.597,55.2027,0.000066
55.614,55.1886,0.000066
55.629,55.1762,0.000066
55.644,55.1640,0.000066
55.661,55.1512,0.000066
55.677,55.1382,0.000066
55.692,55.1269,0.000066
55.709,55.1147,0.000066
55.726,55.1022,0.000066
55.741,55.0913,0.000066
55.758,55.0792,0.000066
55.782,55.0623,0.000066
55.813,55.0415,0.000066
55.843,55.0218,-0.000019
55.874,55.0025,-0.000019
55.905,54.9838,-0.000019
55.936,54.9652,-0.000019
55.966,54.9485,-0.000019
55.997,54.9317,-0.000019
56.012,54.9240,-0.000019
56.028,54.9160,-0.000019
56.047,54.9068,-0.000019
56.074,54.8934,-0.000104
56.092,54.8855,-0.000104
56.110,54.8773,-0.000104
56.137,54.8660,-0.000104
56.156,54.8580,-0.000104
56.177,54.8499,-0.000104
56.199,54.8413,-0.000104
56.220,54.8337,-0.000104
56.236,54.8279,-0.000104
56.252,54.8227,-0.000104
56.268,54.8175,-0.000104
56.285,54.8123,-0.000104
56.300,54.8077,-0.000104
56.316,54.8031,-0.000104
56.333,54.7985,-0.000471
56.348,54.7943,-0.000471
56.364,54.7902,-0.000471
56.380,54.7864,-0.000471
56.396,54.7828,-0.000471
56.412,54.7793,-0.000471
56.429,54.7759,-0.000471
56.444,54.7730,-0.000471
56.460,54.7701,-0.000471
56.476,54.7670,-0.000471
56.499,54.7638,-0.000471
56.516,54.7616,-0.000471
56.532,54.7596,-0.000471
56.547,54.7578,-0.000471
56.564,54.7561,-0.000471
56.579,54.7547,-0.000885
56.595,54.7535,-0.000885
56.611,54.7524,-0.000885
56.627,54.7515,-0.000885
56.644,54.7509,-0.000885
56.659,54.7504,-0.000885
56.676,54.7501,-0.000885
56.697,54.7500,-0.000885
56.723,54.7500,-0.000885
56.740,54.7500,-0.000885
56.755,54.7500,-0.000885
56.772,54.7500,-0.000885
56.788,54.7500,-0.000885
56.804,54.7500,-0.000885
56.831,54.7500,-0.000838
56.852,54.7500,-0.000838
56.867,54.7500,-0.000838
56.883,54.7503,-0.000838
56.899,54.7508,-0.000838
56.916,54.7514,-0.000838
56.932,54.7523,-0.000838
56.947,54.7532,-0.000838
56.963,54.7545,-0.000838
56.979,54.7559,-0.000838
56.996,54.7575,-0.000838
57.026,54.7612,-0.000838
57.042,54.7633,-0.000838
57.058,54.7656,-0.000819
57.074,54.7683,-0.000819
57.090,54.7710,-0.000819
57.106,54.7738,-0.000819
57.122,54.7771,-0.000819
57.139,54.7807,-0.000819
57.169,54.7872,-0.000819
57.186,54.7916,-0.000819
57.202,54.7958,-0.000819
57.218,54.8000,-0.000819
57.234,54.8043,-0.000819
57.250,54.8091,-0.000819
57.266,54.8141,-0.000819
57.282,54.8194,-0.000819
57.298,54.8244,-0.000819
57.314,54.8299,-0.000847
57.330,54.8355,-0.000847
57.346,54.8412,-0.000847
57.362,54.8473,-0.000847
57.378,54.8537,-0.000847
57.394,54.8599,-0.000847
57.410,54.8666,-0.000847
57.426,54.8733,-0.000847
57.443,54.8809,-0.000847
57.463,54.8902,-0.000847
57.479,54.8972,-0.000847
57.496,54.9054,-0.000847
57.525,54.9198,-0.000847
57.554,54.9354,-0.000847
57.570,54.9434,-0.000847
57.586,54.9526,-0.000828
57.602,54.9611,-0.000828
57.633,54.9793,-0.000828
57.649,54.9889,-0.000828
57.665,54.9982,-0.000828
57.683,55.0096,-0.000828
57.703,55.0223,-0.000828
57.726,55.0371,-0.000828
57.751,55.0539,-0.000828
57.774,55.0698,-0.000828
57.793,55.0830,-0.000828
57.810,55.0953,-0.000828
57.825,55.1065,-0.000828
57.841,55.1185,-0.000857
57.857,55.1298,-0.000857
57.873,55.1429,-0.000857
57.889,55.1546,-0.000857
57.905,55.1672,-0.000857
57.921,55.1800,-0.000857
57.937,55.1930,-0.000857
57.953,55.2061,-0.000857
57.969,55.2198,-0.000857
57.985,55.2335,-0.000857
58.001,55.2469,-0.000857
58.017,55.2606,-0.000857
58.033,55.2754,-0.000857
58.049,55.2896,-0.000857
58.065,55.3042,-0.000857
58.081,55.3185,-0.000857
58.111,55.3472,-0.000875
58.126,55.3618,-0.000875
58.143,55.3775,-0.000875
58.160,55.3942,-0.000875
58.175,55.4107,-0.000875
58.191,55.4262,-0.000875
58.206,55.4408,-0.000875
58.222,55.4570,-0.000875
58.238,55.4741,-0.000875
58.254,55.4912,-0.000875
58.270,55.5074,-0.000875
58.286,55.5248,-0.000875
58.303,55.5438,-0.000875
58.318,55.5601,-0.000875
58.334,55.5775,-0.000828
58.350,55.5955,-0.000828
58.369,55.6176,-0.000828
58.395,55.6484,-0.000828
58.414,55.6700,-0.000828
58.431,55.6902,-0.000828
58.456,55.7201,-0.000828
58.486,55.7571,-0.000828
58.502,55.7776,-0.000828
58.533,55.8170,-0.000828
58.564,55.8559,-0.000828
58.580,55.8768,-0.000810
58.611,55.9168,-0.000810
58.635,55.9499,-0.000810
58.651,55.9708,-0.000810
58.667,55.9919,-0.000810
58.682,56.0142,-0.000810
58.698,56.0364,-0.000810
58.715,56.0595,-0.000810
58.732,56.0834,-0.000810
58.749,56.1093,-0.000810
58.765,56.1313,-0.000810
58.780,56.1531,-0.000810
58.796,56.1773,-0.000810
58.827,56.2213,-0.000781
58.842,56.2454,-0.000781
58.860,56.2717,-0.000781
58.889,56.3166,-0.000781
58.907,56.3435,-0.000781
58.923,56.3683,-0.000781
58.939,56.3933,-0.000781
58.956,56.4205,-0.000781
58.971,56.4459,-0.000781
58.992,56.4789,-0.000781
59.015,56.5159,-0.000781
59.034,56.5475,-0.000781
59.050,56.5754,-0.000781
59.068,56.6049,-0.000781
59.091,56.6435,-0.000537
59.122,56.6958,-0.000537
59.138,56.7221,-0.000537
59.168,56.7764,-0.000537
59.199,56.8300,-0.000537
59.231,56.8861,-0.000537
59.262,56.9428,-0.000537
59.293,56.9991,-0.000537
59.323,57.0555,-0.000339
59.341,57.0921,-0.000339
59.359,57.1246,-0.000339
59.386,57.1742,-0.000339
59.403,57.2071,-0.000339
59.419,57.2376,-0.000339
59.434,57.2677,-0.000339
59.450,57.2991,-0.000339
59.467,57.3322,-0.000339
59.482,57.3627,-0.000339
59.499,57.3961,-0.000339
59.514,57.4263,-0.000339
59.530,57.4594,-0.000339
59.547,57.4929,-0.000339
59.562,57.5237,-0.000414
59.578,57.5567,-0.000414
59.595,57.5915,-0.000414
59.611,57.6241,-0.000414
59.626,57.6565,-0.000414
59.642,57.6900,-0.000414
59.658,57.7239,-0.000414
59.674,57.7581,-0.000414
59.704,57.8227,-0.000414
59.721,57.8573,-0.000414
59.736,57.8891,-0.000414
59.752,57.9224,-0.000414
59.769,57.9554,-0.000414
59.784,57.9877,-0.000414
59.800,58.0209,-0.000414
59.816,58.0529,-0.000414
59.833,58.0869,-0.000414
59.848,58.1171,-0.000414
59.864,58.1493,-0.000414
59.880,58.1809,-0.000414
59.896,58.2129,-0.000414
59.912,58.2440,-0.000414
59.929,58.2766,-0.000414
59.961,58.3372,-0.000414
59.977,58.3667,-0.000414
59.992,58.3976,-0.000414
60.009,58.4278,-0.000414
60.038,58.4836,-0.000414
60.057,58.5177,-0.000414
60.077,58.5543,-0.000395
60.101,58.5982,-0.000395
60.120,58.6317,-0.000395
60.136,58.6613,-0.000395
60.152,58.6884,-0.000395
60.168,58.7180,-0.000395
60.184,58.7452,-0.000395
60.200,58.7736,-0.000395
60.216,58.8004,-0.000395
60.233,58.8285,-0.000395
60.257,58.8705,-0.000395
60.273,58.8975,-0.000395
60.289,58.9237,-0.000395
60.305,58.9501,-0.000395
60.323,58.9817,-0.000395
60.348,59.0203,-0.000433
60.369,59.0546,-0.000433
60.385,59.0808,-0.000433
60.401,59.1060,-0.000433
60.417,59.1298,-0.000433
60.433,59.1548,-0.000433
60.450,59.1820,-0.000433
60.465,59.2049,-0.000433
60.481,59.2286,-0.000433
60.497,59.2534,-0.000433
60.514,59.2808,-0.000433
60.529,59.3007,-0.000433
60.545,59.3243,-0.000433
60.561,59.3477,-0.000433
60.577,59.3718,-0.000433
60.593,59.3940,-0.000471
60.609,59.4165,-0.000471
60.625,59.4392,-0.000471
60.641,59.4630,-0.000471
60.657,59.4847,-0.000471
60.673,59.5059,-0.000471
60.689,59.5286,-0.000471
60.705,59.5502,-0.000471
60.721,59.5708,-0.000471
60.737,59.5923,-0.000471
60.754,59.6150,-0.000471
60.782,59.6512,-0.000471
60.809,59.6867,-0.000471
60.825,59.7058,-0.000471
60.840,59.7255,-0.000527
60.857,59.7461,-0.000527
60.872,59.7653,-0.000527
60.889,59.7852,-0.000527
60.905,59.8040,-0.000527
60.921,59.8236,-0.000527
60.937,59.8432,-0.000527
60.953,59.8612,-0.000527
60.969,59.8798,-0.000527
60.985,59.8971,-0.000527
61.002,59.9166,-0.000527
61.018,59.9347,-0.000527
61.044,59.9638,-0.000527
61.065,59.9865,-0.000527
61.081,60.0032,-0.000527
61.097,60.0202,-0.000612
61.113,60.0369,-0.000612
61.129,60.0536,-0.000612
61.145,60.0696,-0.000612
61.161,60.0854,-0.000612
61.177,60.1013,-0.000612
61.193,60.1170,-0.000612
61.209,60.1329,-0.000612
61.224,60.1480,-0.000612
61.241,60.1644,-0.000612
61.258,60.1790,-0.000612
61.276,60.1968,-0.000612
61.307,60.2242,-0.000612
61.324,60.2393,-0.000612
61.353,60.2642,-0.000697
61.369,60.2775,-0.000697
61.385,60.2915,-0.000697
61.401,60.3048,-0.000697
61.416,60.3172,-0.000697
61.434,60.3308,-0.000697
61.462,60.3534,-0.000697
61.481,60.3678,-0.000697
61.496,60.3797,-0.000697
61.513,60.3920,-0.000697
61.529,60.4036,-0.000697
61.545,60.4147,-0.000697
61.561,60.4263,-0.000697
61.577,60.4374,-0.000697
61.592,60.4479,-0.000687
61.608,60.4588,-0.000687
61.625,60.4696,-0.000687
61.640,60.4797,-0.000687
61.657,60.4900,-0.000687
61.673,60.5002,-0.000687
61.689,60.5099,-0.000687
61.704,60.5190,-0.000687
61.721,60.5285,-0.000687
61.737,60.5377,-0.000687
61.753,60.5466,-0.000687
61.769,60.5554,-0.000687
61.785,60.5642,-0.000687
61.800,60.5722,-0.000687
61.817,60.5807,-0.000687
61.832,60.5887,-0.000668
61.849,60.5969,-0.000668
61.865,60.6044,-0.000668
61.888,60.6151,-0.000668
61.910,60.6246,-0.000668
61.941,60.6379,-0.000668
61.973,60.6507,-0.000668
62.004,60.6621,-0.000668
62.019,60.6677,-0.000668
62.035,60.6734,-0.000668
62.052,60.6786,-0.000668
62.081,60.6881,-0.000668
62.112,60.6974,-0.000650
62.129,60.7019,-0.000650
62.159,60.7096,-0.000650
62.176,60.7136,-0.000650
62.196,60.7183,-0.000650
62.222,60.7237,-0.000650
62.240,60.7272,-0.000650
62.269,60.7323,-0.000650
62.288,60.7351,-0.000650
62.303,60.7374,-0.000650
62.320,60.7396,-0.000650
62.335,60.7415,-0.000650
62.352,60.7432,-0.000631
62.367,60.7447,-0.000631
62.383,60.7461,-0.000631
62.400,60.7473,-0.000631
62.415,60.7482,-0.000631
62.438,60.7492,-0.000631
62.454,60.7497,-0.000631
62.471,60.7499,-0.000631
62.501,60.7500,-0.000631
62.517,60.7500,-0.000631
62.534,60.7500,-0.000631
62.549,60.7500,-0.000631
62.572,60.7500,-0.000631
62.594,60.7500,-0.000687
62.613,60.7500,-0.000687
62.629,60.7500,-0.000687
62.645,60.7500,-0.000687
62.661,60.7500,-0.000687
62.677,60.7500,-0.000687
62.695,60.7500,-0.000687
62.710,60.7500,-0.000687
62.734,60.7500,-0.000687
62.750,60.7500,-0.000687
62.781,60.7500,-0.000687
62.811,60.7500,-0.000687
62.827,60.7500,-0.000687
62.858,60.7500,-0.000800
62.874,60.7500,-0.000800
62.904,60.7500,-0.000800
62.920,60.7500,-0.000800
62.936,60.7500,-0.000800
62.952,60.7500,-0.000800
62.983,60.7500,-0.000800
62.998,60.7500,-0.000800
63.013,60.7500,-0.000800
63.029,60.7500,-0.000800
63.046,60.7500,-0.000800
63.061,60.7500,-0.000800
63.077,60.7500,-0.000800
63.093,60.7500,-0.000875
63.109,60.7500,-0.000875
63.125,60.7500,-0.000875
63.141,60.7500,-0.000875
63.158,60.7500,-0.000875
63.173,60.7500,-0.000875
63.189,60.7500,-0.000875
63.205,60.7500,-0.000875
63.221,60.7500,-0.000875
63.237,60.7500,-0.000875
63.253,60.7500,-0.000875
63.269,60.7500,-0.000875
63.285,60.7500,-0.000875
63.301,60.7500,-0.000875
63.318,60.7500,-0.000875
63.333,60.7500,-0.000819
63.349,60.7500,-0.000819
63.366,60.7500,-0.000819
63.385,60.7500,-0.000819
63.416,60.7500,-0.000819
63.432,60.7500,-0.000819
63.463,60.7500,-0.000819
63.478,60.7500,-0.000819
63.509,60.7500,-0.000819
63.526,60.7500,-0.000819
63.555,60.7500,-0.000819
63.578,60.7500,-0.000762
63.602,60.7500,-0.000762
63.622,60.7500,-0.000762
63.637,60.7500,-0.000762
63.653,60.7500,-0.000762
63.669,60.7500,-0.000762
63.685,60.7500,-0.000762
63.701,60.7500,-0.000762
63.717,60.7500,-0.000762
63.733,60.7500,-0.000762
63.749,60.7500,-0.000762
63.765,60.7500,-0.000762
63.781,60.7500,-0.000762
63.797,60.7500,-0.000762
63.813,60.7500,-0.000715
63.829,60.7500,-0.000715
63.845,60.7500,-0.000715
63.861,60.7500,-0.000715
63.877,60.7500,-0.000715
63.893,60.7500,-0.000715
63.909,60.7500,-0.000715
63.925,60.7500,-0.000715
63.941,60.7500,-0.000715
63.957,60.7500,-0.000715
63.973,60.7500,-0.000715
63.989,60.7500,-0.000715
64.005,60.7500,-0.000715
64.022,60.7500,-0.000715
64.037,60.7500,-0.000715
64.067,60.7500,-0.000734
64.082,60.7500,-0.000734
64.099,60.7500,-0.000734
64.115,60.7500,-0.000734
64.131,60.7500,-0.000734
64.147,60.7500,-0.000734
64.163,60.7500,-0.000734
64.179,60.7500,-0.000734
64.197,60.7500,-0.000734
64.223,60.7500,-0.000734
64.242,60.7500,-0.000734
64.259,60.7500,-0.000734
64.275,60.7500,-0.000734
64.291,60.7500,-0.000734
64.307,60.7500,-0.000734
64.324,60.7500,-0.000734
64.339,60.7500,-0.000866
64.354,60.7500,-0.000866
64.371,60.7500,-0.000866
64.387,60.7500,-0.000866
64.402,60.7500,-0.000866
64.419,60.7500,-0.000866
64.435,60.7500,-0.000866
64.450,60.7500,-0.000866
64.466,60.7500,-0.000866
64.483,60.7500,-0.000866
64.499,60.7500,-0.000866
64.514,60.7500,-0.000866
64.530,60.7500,-0.000866
64.547,60.7500,-0.000866
64.563,60.7500,-0.000866
64.578,60.7500,-0.000866
64.594,60.7500,-0.000970
64.610,60.7500,-0.000970
64.627,60.7500,-0.000970
64.642,60.7500,-0.000970
64.658,60.7500,-0.000970
64.674,60.7500,-0.000970
64.692,60.7500,-0.000970
64.716,60.7500,-0.000970
64.731,60.7500,-0.000970
64.762,60.7500,-0.000970
64.792,60.7500,-0.000970
64.808,60.7500,-0.000970
64.839,60.7500,-0.001035
64.855,60.7500,-0.001035
64.871,60.7500,-0.001035
64.902,60.7500,-0.001035
64.933,60.7500,-0.001035
64.949,60.7500,-0.001035
64.980,60.7500,-0.001035
65.011,60.7500,-0.001035
65.042,60.7500,-0.001035
65.060,60.7500,-0.001035
65.089,60.7500,-0.001035
65.118,60.7500,-0.001092
65.136,60.7500,-0.001092
65.166,60.7500,-0.001092
65.185,60.7500,-0.001092
65.212,60.7500,-0.001092
65.229,60.7500,-0.001092
65.249,60.7500,-0.001092
65.275,60.7500,-0.001092
65.293,60.7500,-0.001092
65.310,60.7500,-0.001092
65.336,60.7500,-0.000913
65.358,60.7500,-0.000913
65.374,60.7500,-0.000913
65.390,60.7500,-0.000913
65.405,60.7500,-0.000913
65.421,60.7500,-0.000913
65.439,60.7500,-0.000913
65.460,60.7500,-0.000913
65.476,60.7500,-0.000913
65.506,60.7500,-0.000913
65.522,60.7500,-0.000913
65.538,60.7500,-0.000913
65.569,60.7500,-0.000913
65.585,60.7500,-0.000678
65.615,60.7500,-0.000678
65.646,60.7500,-0.000678
65.662,60.7500,-0.000678
65.678,60.7500,-0.000678
65.694,60.7500,-0.000678
65.709,60.7500,-0.000678
65.725,60.7500,-0.000678
65.742,60.7500,-0.000678
65.757,60.7500,-0.000678
65.774,60.7500,-0.000678
65.789,60.7500,-0.000678
65.805,60.7500,-0.000678
65.821,60.7500,-0.000678
65.837,60.7500,-0.000697
65.853,60.7500,-0.000697
65.869,60.7500,-0.000697
65.884,60.7500,-0.000697
65.901,60.7500,-0.000697
65.917,60.7500,-0.000697
65.935,60.7500,-0.000697
65.955,60.7500,-0.000697
65.988,60.7500,-0.000697
66.017,60.7500,-0.000697
66.047,60.7500,-0.000697
66.078,60.7500,-0.000828
66.094,60.7500,-0.000828
66.111,60.7500,-0.000828
66.141,60.7500,-0.000828
66.170,60.7500,-0.000828
66.186,60.7500,-0.000828
66.202,60.7500,-0.000828
66.218,60.7500,-0.000828
66.241,60.7500,-0.000828
66.264,60.7500,-0.000828
66.283,60.7500,-0.000828
66.312,60.7500,-0.000828
66.330,60.7500,-0.000857
66.346,60.7500,-0.000857
66.362,60.7500,-0.000857
66.378,60.7500,-0.000857
66.394,60.7500,-0.000857
66.411,60.7500,-0.000857
66.426,60.7500,-0.000857
66.442,60.7500,-0.000857
66.458,60.7500,-0.000857
66.474,60.7500,-0.000857
66.490,60.7500,-0.000857
66.506,60.7500,-0.000857
66.522,60.7500,-0.000857
66.538,60.7500,-0.000857
66.554,60.7500,-0.000857
66.570,60.7500,-0.000857
66.586,60.7500,-0.000857
66.602,60.7500,-0.000857
66.618,60.7500,-0.000857
66.634,60.7500,-0.000857
66.650,60.7500,-0.000857
66.666,60.7500,-0.000857
66.682,60.7500,-0.000857
66.698,60.7500,-0.000857
66.721,60.7500,-0.000857
66.737,60.7500,-0.000857
66.753,60.7498,-0.000857
66.769,60.7493,-0.000857
66.785,60.7487,-0.000857
66.801,60.7478,-0.000857
66.816,60.7468,-0.000894
66.833,60.7456,-0.000894
66.849,60.7442,-0.000894
66.865,60.7426,-0.000894
66.881,60.7407,-0.000894
66.897,60.7389,-0.000894
66.913,60.7365,-0.000894
66.929,60.7343,-0.000894
66.945,60.7317,-0.000894
66.961,60.7288,-0.000894
66.977,60.7260,-0.000894
66.993,60.7227,-0.000894
67.009,60.7195,-0.000894
67.030,60.7144,-0.000894
67.052,60.7096,-0.000894
67.073,60.7039,-0.000706
67.090,60.6996,-0.000706
67.105,60.6953,-0.000706
67.121,60.6907,-0.000706
67.137,60.6859,-0.000706
67.154,60.6803,-0.000706
67.169,60.6754,-0.000706
67.185,60.6699,-0.000706
67.201,60.6643,-0.000706
67.217,60.6584,-0.000706
67.233,60.6524,-0.000706
67.249,60.6461,-0.000706
67.265,60.6395,-0.000706
67.281,60.6328,-0.000706
67.297,60.6261,-0.000706
67.313,60.6193,-0.000706
67.329,60.6120,-0.000706
67.344,60.6047,-0.000706
67.361,60.5966,-0.000706
67.379,60.5879,-0.000706
67.408,60.5737,-0.000706
67.425,60.5647,-0.000706
67.442,60.5552,-0.000706
67.457,60.5464,-0.000706
67.473,60.5381,-0.000706
67.488,60.5294,-0.000706
67.506,60.5191,-0.000706
67.530,60.5045,-0.000706
67.546,60.4948,-0.000706
67.577,60.4748,-0.000706
67.592,60.4651,-0.000772
67.622,60.4452,-0.000772
67.638,60.4341,-0.000772
67.668,60.4132,-0.000772
67.685,60.4008,-0.000772
67.715,60.3791,-0.000772
67.731,60.3670,-0.000772
67.747,60.3540,-0.000772
67.777,60.3303,-0.000772
67.803,60.3097,-0.000772
67.819,60.2967,-0.000772
67.835,60.2832,-0.000697
67.852,60.2693,-0.000697
67.867,60.2558,-0.000697
67.883,60.2422,-0.000697
67.900,60.2276,-0.000697
67.915,60.2136,-0.000697
67.932,60.1984,-0.000697
67.947,60.1845,-0.000697
67.963,60.1695,-0.000697
67.980,60.1536,-0.000697
68.008,60.1258,-0.000697
68.027,60.1081,-0.000697
68.044,60.0913,-0.000697
68.059,60.0755,-0.000697
68.076,60.0591,-0.000697
68.091,60.0433,-0.000697
68.108,60.0256,-0.000697
68.124,60.0089,-0.000697
68.139,59.9930,-0.000697
68.156,59.9750,-0.000697
68.172,59.9569,-0.000697
68.188,59.9399,-0.000697
68.204,59.9223,-0.000697
68.219,59.9046,-0.000697
68.236,59.8856,-0.000697
68.251,59.8683,-0.000697
68.267,59.8497,-0.000697
68.283,59.8306,-0.000697
68.299,59.8118,-0.000697
68.315,59.7928,-0.000697
68.346,59.7540,-0.000697
68.362,59.7351,-0.000697
68.378,59.7152,-0.000697
68.394,59.6955,-0.000697
68.410,59.6749,-0.000697
68.427,59.6540,-0.000697
68.443,59.6331,-0.000697
68.458,59.6129,-0.000697
68.474,59.5913,-0.000697
68.490,59.5706,-0.000697
68.506,59.5492,-0.000697
68.522,59.5274,-0.000697
68.538,59.5053,-0.000697
68.555,59.4829,-0.000659
68.570,59.4614,-0.000659
68.586,59.4386,-0.000659
68.604,59.4138,-0.000659
68.623,59.3850,-0.000659
68.655,59.3405,-0.000659
68.672,59.3153,-0.000659
68.701,59.2715,-0.000659
68.734,59.2231,-0.000659
68.764,59.1754,-0.000659
68.795,59.1274,-0.000659
68.811,59.1024,-0.000584
68.826,59.0779,-0.000584
68.843,59.0517,-0.000584
68.858,59.0276,-0.000584
68.874,59.0013,-0.000584
68.901,58.9562,-0.000584
68.917,58.9305,-0.000584
68.933,58.9038,-0.000584
68.949,58.8779,-0.000584
68.967,58.8455,-0.000584
68.994,58.8011,-0.000584
69.013,58.7678,-0.000584
69.029,58.7395,-0.000584
69.046,58.7121,-0.000584
69.062,58.6829,-0.000518
69.077,58.6564,-0.000518
69.095,58.6217,-0.000518
69.118,58.5826,-0.000518
69.133,58.5547,-0.000518
69.149,58.5247,-0.000518
69.180,58.4671,-0.000518
69.211,58.4105,-0.000518
69.241,58.3530,-0.000518
69.257,58.3223,-0.000518
69.272,58.2936,-0.000518
69.288,58.2614,-0.000518
69.304,58.2324,-0.000518
69.320,58.2022,-0.000461
69.335,58.1716,-0.000461
69.366,58.1092,-0.000461
69.381,58.0792,-0.000461
69.397,58.0473,-0.000461
69.413,58.0152,-0.000461
69.429,57.9829,-0.000461
69.456,57.9264,-0.000461
69.472,57.8927,-0.000461
69.488,57.8600,-0.000461
69.504,57.8263,-0.000461
69.520,57.7912,-0.000461
69.536,57.7580,-0.000461
69.552,57.7248,-0.000461
69.568,57.6914,-0.000405
69.584,57.6565,-0.000405
69.600,57.6225,-0.000405
69.616,57.5885,-0.000405
69.632,57.5567,-0.000405
69.648,57.5227,-0.000405
69.664,57.4903,-0.000405
69.680,57.4565,-0.000405
69.696,57.4252,-0.000405
69.712,57.3927,-0.000405
69.728,57.3587,-0.000405
69.744,57.3287,-0.000405
69.760,57.2967,-0.000405
69.776,57.2651,-0.000405
69.792,57.2332,-0.000405
69.808,57.2018,-0.000395
69.824,57.1698,-0.000395
69.840,57.1386,-0.000395
69.856,57.1102,-0.000395
69.872,57.0794,-0.000395
69.888,57.0488,-0.000395
69.904,57.0193,-0.000395
69.920,56.9894,-0.000395
69.935,56.9585,-0.000395
69.952,56.9301,-0.000395
69.968,56.9000,-0.000395
69.996,56.8494,-0.000395
70.012,56.8200,-0.000395
70.028,56.7926,-0.000395
70.044,56.7638,-0.000395
70.060,56.7361,-0.000395
70.076,56.7080,-0.000395
70.092,56.6800,-0.000405
70.108,56.6528,-0.000405
70.126,56.6197,-0.000405
70.154,56.5739,-0.000405
70.172,56.5443,-0.000405
70.189,56.5151,-0.000405
70.216,56.4706,-0.000405
70.236,56.4385,-0.000405
70.252,56.4123,-0.000405
70.268,56.3870,-0.000405
70.284,56.3606,-0.000405
70.300,56.3368,-0.000405
70.315,56.3115,-0.000405
70.331,56.2865,-0.000405
70.347,56.2622,-0.000292
70.364,56.2369,-0.000292
70.379,56.2134,-0.000292
70.395,56.1892,-0.000292
70.412,56.1648,-0.000292
70.427,56.1416,-0.000292
70.444,56.1166,-0.000292
70.459,56.0947,-0.000292
70.476,56.0709,-0.000292
70.491,56.0485,-0.000292
70.516,56.0146,-0.000292
70.531,55.9917,-0.000292
70.547,55.9690,-0.000292
70.563,55.9477,-0.000292
70.579,55.9258,-0.000160
70.595,55.9041,-0.000160
70.611,55.8826,-0.000160
70.634,55.8527,-0.000160
70.649,55.8321,-0.000160
70.679,55.7934,-0.000160
70.695,55.7731,-0.000160
70.710,55.7537,-0.000160
70.741,55.7155,-0.000160
70.758,55.6945,-0.000160
70.787,55.6592,-0.000160
70.805,55.6380,-0.000160
70.834,55.6029,-0.000122
70.851,55.5833,-0.000122
70.872,55.5587,-0.000122
70.887,55.5417,-0.000122
70.911,55.5155,-0.000122
70.932,55.4926,-0.000122
70.948,55.4749,-0.000122
70.973,55.4473,-0.000122
70.996,55.4237,-0.000122
71.012,55.4073,-0.000122
71.036,55.3822,-0.000122
71.055,55.3634,-0.000122
71.071,55.3474,-0.000122
71.087,55.3313,-0.000066
71.103,55.3159,-0.000066
71.119,55.3006,-0.000066
71.135,55.2857,-0.000066
71.151,55.2707,-0.000066
71.167,55.2559,-0.000066
71.184,55.2407,-0.000066
71.199,55.2269,-0.000066
71.216,55.2124,-0.000066
71.232,55.1984,-0.000066
71.248,55.1846,-0.000066
71.263,55.1713,-0.000066
71.279,55.1581,-0.000066
71.296,55.1443,-0.000066
71.311,55.1316,-0.000066
71.328,55.1182,-0.000028
71.343,55.1062,-0.000028
71.361,55.0925,-0.000028
71.390,55.0704,-0.000028
71.407,55.0576,-0.000028
71.424,55.0454,-0.000028
71.439,55.0344,-0.000028
71.455,55.0231,-0.000028
71.471,55.0121,-0.000028
71.490,54.9989,-0.000028
71.514,54.9832,-0.000028
71.535,54.9697,-0.000028
71.553,54.9579,-0.000028
71.568,54.9490,-0.000028
71.591,54.9346,-0.000028
71.614,54.9212,-0.000047
71.630,54.9125,-0.000047
71.646,54.9033,-0.000047
71.663,54.8938,-0.000047
71.686,54.8820,-0.000047
71.716,54.8665,-0.000047
71.746,54.8516,-0.000047
71.778,54.8368,-0.000047
71.808,54.8236,-0.000047
71.823,54.8167,-0.000047
71.839,54.8102,-0.000264
71.854,54.8043,-0.000264
71.870,54.7983,-0.000264
71.885,54.7924,-0.000264
71.901,54.7866,-0.000264
71.917,54.7805,-0.000264
71.933,54.7752,-0.000264
71.949,54.7700,-0.000264
71.965,54.7648,-0.000264
71.982,54.7594,-0.000264
72.009,54.7516,-0.000264
72.029,54.7463,-0.000264
72.045,54.7420,-0.000264
72.061,54.7384,-0.000264
72.077,54.7345,-0.000678
72.093,54.7310,-0.000678
72.109,54.7276,-0.000678
72.126,54.7243,-0.000678
72.149,54.7200,-0.000678
72.169,54.7167,-0.000678
72.185,54.7142,-0.000678
72.201,54.7121,-0.000678
72.217,54.7100,-0.000678
72.233,54.7081,-0.000678
72.249,54.7065,-0.000678
72.265,54.7050,-0.000678
72.281,54.7036,-0.000678
72.297,54.7025,-0.000678
72.313,54.7017,-0.000894
72.329,54.7010,-0.000894
72.345,54.7005,-0.000894
72.361,54.7002,-0.000894
72.377,54.7000,-0.000894
72.393,54.7000,-0.000894
72.410,54.7000,-0.000894
72.429,54.7000,-0.000894
72.459,54.7000,-0.000894
72.491,54.7000,-0.000894
72.521,54.7000,-0.000894
72.537,54.7002,-0.000894
72.553,54.7005,-0.000894
72.569,54.7010,-0.000847
72.585,54.7018,-0.000847
72.602,54.7028,-0.000847
72.618,54.7039,-0.000847
72.644,54.7061,-0.000847
72.665,54.7085,-0.000847
72.681,54.7103,-0.000847
72.698,54.7124,-0.000847
72.722,54.7160,-0.000847
72.738,54.7186,-0.000847
72.754,54.7212,-0.000847
72.770,54.7242,-0.000847
72.787,54.7278,-0.000847
72.815,54.7338,-0.000885
72.834,54.7380,-0.000885
72.850,54.7420,-0.000885
72.866,54.7462,-0.000885
72.882,54.7506,-0.000885
72.898,54.7550,-0.000885
72.915,54.7602,-0.000885
72.939,54.7675,-0.000885
72.970,54.7779,-0.000885
73.001,54.7890,-0.000885
73.017,54.7952,-0.000885
73.033,54.8011,-0.000885
73.049,54.8074,-0.000885
73.080,54.8206,-0.000913
73.112,54.8341,-0.000913
73.143,54.8487,-0.000913
73.158,54.8558,-0.000913
73.190,54.8713,-0.000913
73.206,54.8802,-0.000913
73.236,54.8961,-0.000913
73.252,54.9049,-0.000913
73.268,54.9140,-0.000913
73.299,54.9315,-0.000913
73.314,54.9405,-0.000847
73.330,54.9507,-0.000847
73.360,54.9690,-0.000847
73.377,54.9803,-0.000847
73.394,54.9914,-0.000847
73.409,55.0018,-0.000847
73.425,55.0126,-0.000847
73.442,55.0240,-0.000847
73.458,55.0358,-0.000847
73.473,55.0467,-0.000847
73.489,55.0581,-0.000847
73.507,55.0711,-0.000847
73.522,55.0825,-0.000847
73.537,55.0944,-0.000847
73.554,55.1071,-0.000847
73.569,55.1195,-0.000866
73.586,55.1326,-0.000866
73.601,55.1453,-0.000866
73.617,55.1587,-0.000866
73.634,55.1724,-0.000866
73.649,55.1856,-0.000866
73.665,55.1994,-0.000866
73.681,55.2134,-0.000866
73.697,55.2283,-0.000866
73.714,55.2426,-0.000866
73.729,55.2565,-0.000866
73.746,55.2727,-0.000866
73.771,55.2952,-0.000866
73.786,55.3101,-0.000866
73.803,55.3269,-0.000857
73.818,55.3414,-0.000857
73.835,55.3576,-0.000857
73.850,55.3732,-0.000857
73.866,55.3896,-0.000857
73.883,55.4064,-0.000857
73.898,55.4227,-0.000857
73.915,55.4397,-0.000857
73.930,55.4565,-0.000857
73.946,55.4735,-0.000857
73.963,55.4914,-0.000857
73.978,55.5089,-0.000857
73.994,55.5263,-0.000857
74.014,55.5495,-0.000857
74.031,55.5693,-0.000857
74.058,55.5993,-0.000857
74.074,55.6181,-0.000866
74.091,55.6380,-0.000866
74.106,55.6564,-0.000866
74.122,55.6757,-0.000866
74.141,55.6984,-0.000866
74.165,55.7294,-0.000866
74.186,55.7550,-0.000866
74.203,55.7764,-0.000866
74.219,55.7968,-0.000866
74.234,55.8165,-0.000866
74.250,55.8372,-0.000866
74.267,55.8595,-0.000866
74.282,55.8798,-0.000866
74.298,55.9026,-0.000866
74.322,55.9344,-0.000885
74.338,55.9547,-0.000885
74.354,55.9781,-0.000885
74.370,55.9994,-0.000885
74.387,56.0246,-0.000885
74.414,56.0628,-0.000885
74.433,56.0901,-0.000885
74.449,56.1139,-0.000885
74.466,56.1386,-0.000885
74.491,56.1760,-0.000885
74.522,56.2221,-0.000885
74.553,56.2688,-0.000885
74.585,56.3193,-0.000866
74.615,56.3672,-0.000866
74.647,56.4183,-0.000866
74.678,56.4675,-0.000866
74.709,56.5188,-0.000866
74.740,56.5703,-0.000866
74.755,56.5976,-0.000866
74.772,56.6253,-0.000866
74.801,56.6752,-0.000866
74.819,56.7055,-0.000866
74.847,56.7567,-0.000574
74.876,56.8066,-0.000574
74.892,56.8352,-0.000574
74.908,56.8655,-0.000574
74.924,56.8931,-0.000574
74.942,56.9266,-0.000574
74.971,56.9811,-0.000574
74.988,57.0118,-0.000574
75.004,57.0428,-0.000574
75.020,57.0725,-0.000574
75.036,57.1021,-0.000574
75.052,57.1334,-0.000574
75.069,57.1665,-0.000574
75.096,57.2181,-0.000395
75.116,57.2572,-0.000395
75.132,57.2892,-0.000395
75.148,57.3203,-0.000395
75.164,57.3519,-0.000395
75.180,57.3853,-0.000395
75.196,57.4170,-0.000395
75.212,57.4491,-0.000395
75.228,57.4819,-0.000395
75.244,57.5159,-0.000395
75.260,57.5496,-0.000395
75.276,57.5821,-0.000395
75.292,57.6146,-0.000395
75.308,57.6485,-0.000395
75.324,57.6828,-0.000395
75.340,57.7164,-0.000508
75.356,57.7514,-0.000508
75.372,57.7851,-0.000508
75.398,57.8391,-0.000508
75.414,57.8734,-0.000508
75.430,57.9047,-0.000508
75.447,57.9409,-0.000508
75.462,57.9700,-0.000508
75.478,58.0033,-0.000508
75.494,58.0359,-0.000508
75.512,58.0701,-0.000508
75.528,58.1052,-0.000508
75.544,58.1346,-0.000508
75.559,58.1641,-0.000508
75.574,58.1942,-0.000508
75.590,58.2250,-0.000508
75.606,58.2548,-0.000508
75.628,58.2994,-0.000508
75.653,58.3466,-0.000508
75.670,58.3763,-0.000508
75.686,58.4061,-0.000508
75.703,58.4380,-0.000508
75.729,58.4859,-0.000508
75.750,58.5242,-0.000508
75.766,58.5537,-0.000508
75.782,58.5814,-0.000508
75.798,58.6103,-0.000508
75.814,58.6396,-0.000508
75.830,58.6678,-0.000433
75.846,58.6943,-0.000433
75.862,58.7224,-0.000433
75.878,58.7511,-0.000433
75.893,58.7772,-0.000433
75.910,58.8052,-0.000433
75.926,58.8320,-0.000433
75.942,58.8597,-0.000433
75.957,58.8850,-0.000433
75.974,58.9114,-0.000433
75.989,58.9377,-0.000433
76.005,58.9637,-0.000433
76.022,58.9901,-0.000433
76.038,59.0152,-0.000433
76.054,59.0421,-0.000433
76.070,59.0667,-0.000471
76.086,59.0908,-0.000471
76.103,59.1186,-0.000471
76.118,59.1406,-0.000471
76.134,59.1650,-0.000471
76.150,59.1893,-0.000471
76.166,59.2137,-0.000471
76.181,59.2373,-0.000471
76.198,59.2615,-0.000471
76.213,59.2844,-0.000471
76.230,59.3091,-0.000471
76.256,59.3468,-0.000471
76.278,59.3778,-0.000471
76.297,59.4050,-0.000471
76.319,59.4344,-0.000471
76.349,59.4767,-0.000565
76.365,59.4979,-0.000565
76.395,59.5387,-0.000565
76.426,59.5791,-0.000565
76.441,59.5983,-0.000565
76.456,59.6178,-0.000565
76.486,59.6563,-0.000565
76.508,59.6831,-0.000565
76.532,59.7126,-0.000565
76.550,59.7342,-0.000565
76.566,59.7537,-0.000565
76.581,59.7719,-0.000631
76.598,59.7921,-0.000631
76.614,59.8096,-0.000631
76.630,59.8284,-0.000631
76.646,59.8474,-0.000631
76.661,59.8640,-0.000631
76.681,59.8866,-0.000631
76.704,59.9118,-0.000631
76.726,59.9352,-0.000631
76.743,59.9532,-0.000631
76.765,59.9777,-0.000631
76.796,60.0090,-0.000631
76.827,60.0404,-0.000706
76.857,60.0698,-0.000706
76.874,60.0859,-0.000706
76.904,60.1150,-0.000706
76.920,60.1300,-0.000706
76.936,60.1447,-0.000706
76.951,60.1594,-0.000706
76.981,60.1849,-0.000706
76.999,60.2004,-0.000706
77.027,60.2250,-0.000706
77.046,60.2409,-0.000706
77.061,60.2534,-0.000706
77.077,60.2666,-0.000781
77.093,60.2794,-0.000781
77.110,60.2925,-0.000781
77.125,60.3044,-0.000781
77.141,60.3166,-0.000781
77.157,60.3288,-0.000781
77.174,60.3411,-0.000781
77.189,60.3523,-0.000781
77.205,60.3641,-0.000781
77.221,60.3752,-0.000781
77.238,60.3869,-0.000781
77.257,60.4004,-0.000781
77.287,60.4200,-0.000781
77.318,60.4395,-0.000875
77.333,60.4493,-0.000875
77.349,60.4593,-0.000875
77.366,60.4686,-0.000875
77.381,60.4775,-0.000875
77.398,60.4875,-0.000875
77.414,60.4970,-0.000875
77.443,60.5124,-0.000875
77.461,60.5217,-0.000875
77.477,60.5299,-0.000875
77.493,60.5379,-0.000875
77.509,60.5456,-0.000875
77.525,60.5533,-0.000875
77.543,60.5616,-0.000875
77.566,60.5722,-0.000875
77.582,60.5794,-0.000875
77.598,60.5858,-0.000819
77.614,60.5926,-0.000819
77.630,60.5986,-0.000819
77.646,60.6048,-0.000819
77.662,60.6109,-0.000819
77.678,60.6167,-0.000819
77.694,60.6223,-0.000819
77.711,60.6280,-0.000819
77.727,60.6332,-0.000819
77.754,60.6416,-0.000819
77.774,60.6472,-0.000819
77.791,60.6519,-0.000819
77.806,60.6560,-0.000819
77.822,60.6599,-0.000772
77.838,60.6638,-0.000772
77.854,60.6674,-0.000772
77.870,60.6710,-0.000772
77.886,60.6741,-0.000772
77.902,60.6772,-0.000772
77.918,60.6802,-0.000772
77.934,60.6828,-0.000772
77.950,60.6853,-0.000772
77.967,60.6878,-0.000772
77.989,60.6906,-0.000772
78.016,60.6935,-0.000772
78.047,60.6962,-0.000772
78.077,60.6982,-0.000772
78.094,60.6989,-0.000847
78.110,60.6996,-0.000847
78.126,60.6999,-0.000847
78.146,60.7000,-0.000847
78.170,60.7000,-0.000847
78.190,60.7000,-0.000847
78.206,60.7000,-0.000847
78.222,60.7000,-0.000847
78.239,60.7000,-0.000847
78.254,60.7000,-0.000847
78.270,60.7000,-0.000847
78.286,60.7000,-0.000847
78.302,60.7000,-0.000847
78.318,60.7000,-0.000885
78.334,60.7000,-0.000885
78.350,60.7000,-0.000885
78.366,60.7000,-0.000885
78.382,60.7000,-0.000885
78.398,60.7000,-0.000885
78.414,60.7000,-0.000885
78.430,60.7000,-0.000885
78.446,60.7000,-0.000885
78.462,60.7000,-0.000885
78.478,60.7000,-0.000885
78.494,60.7000,-0.000885
78.510,60.7000,-0.000885
78.529,60.7000,-0.000885
78.557,60.7000,-0.000922
78.574,60.7000,-0.000922
78.592,60.7000,-0.000922
78.618,60.7000,-0.000922
78.638,60.7000,-0.000922
78.654,60.7000,-0.000922
78.670,60.7000,-0.000922
78.686,60.7000,-0.000922
78.702,60.7000,-0.000922
78.718,60.7000,-0.000922
78.734,60.7000,-0.000922
78.749,60.7000,-0.000922
78.766,60.7000,-0.000922
78.782,60.7000,-0.000922
78.797,60.7000,-0.000922
78.814,60.7000,-0.000960
78.830,60.7000,-0.000960
78.846,60.7000,-0.000960
78.862,60.7000,-0.000960
78.878,60.7000,-0.000960
78.893,60.7000,-0.000960
78.909,60.7000,-0.000960
78.926,60.7000,-0.000960
78.942,60.7000,-0.000960
78.959,60.7000,-0.000960
78.988,60.7000,-0.000960
79.005,60.7000,-0.000960
79.024,60.7000,-0.000960
79.050,60.7000,-0.000913
79.069,60.7000,-0.000913
79.086,60.7000,-0.000913
79.102,60.7000,-0.000913
79.118,60.7000,-0.000913
79.133,60.7000,-0.000913
79.149,60.7000,-0.000913
79.173,60.7000,-0.000913
79.189,60.7000,-0.000913
79.204,60.7000,-0.000913
79.221,60.7000,-0.000913
79.236,60.7000,-0.000913
79.252,60.7000,-0.000913
79.271,60.7000,-0.000913
79.300,60.7000,-0.000913
79.316,60.7000,-0.000847
79.333,60.7000,-0.000847
79.349,60.7000,-0.000847
79.365,60.7000,-0.000847
79.380,60.7000,-0.000847
79.397,60.7000,-0.000847
79.413,60.7000,-0.000847
79.428,60.7000,-0.000847
79.445,60.7000,-0.000847
79.461,60.7000,-0.000847
79.477,60.7000,-0.000847
79.492,60.7000,-0.000847
79.508,60.7000,-0.000847
79.526,60.7000,-0.000847
79.546,60.7000,-0.000847
79.577,60.7000,-0.000866
79.593,60.7000,-0.000866
79.608,60.7000,-0.000866
79.624,60.7000,-0.000866
79.640,60.7000,-0.000866
79.655,60.7000,-0.000866
79.686,60.7000,-0.000866
79.709,60.7000,-0.000866
79.725,60.7000,-0.000866
79.741,60.7000,-0.000866
79.757,60.7000,-0.000866
79.774,60.7000,-0.000866
79.789,60.7000,-0.000866
79.805,60.7000,-0.000922
79.822,60.7000,-0.000922
79.837,60.7000,-0.000922
79.854,60.7000,-0.000922
79.869,60.7000,-0.000922
79.885,60.7000,-0.000922
79.901,60.7000,-0.000922
79.918,60.7000,-0.000922
79.934,60.7000,-0.000922
79.950,60.7000,-0.000922
79.966,60.7000,-0.000922
79.981,60.7000,-0.000922
79.997,60.7000,-0.000922
80.013,60.7000,-0.000922
80.030,60.7000,-0.000922
80.045,60.7000,-0.000922
80.063,60.7000,-0.000922
80.087,60.7000,-0.000922
80.118,60.7000,-0.000941
80.149,60.7000,-0.000941
80.179,60.7000,-0.000941
80.195,60.7000,-0.000941
80.210,60.7000,-0.000941
80.241,60.7000,-0.000941
80.256,60.7000,-0.000941
80.272,60.7000,-0.000941
80.303,60.7000,-0.000941
80.318,60.7000,-0.000941
80.349,60.7000,-0.000932
80.365,60.7000,-0.000932
80.381,60.7000,-0.000932
80.398,60.7000,-0.000932
80.426,60.7000,-0.000932
80.445,60.7000,-0.000932
80.461,60.7000,-0.000932
80.477,60.7000,-0.000932
80.493,60.7000,-0.000932
80.509,60.7000,-0.000932
80.524,60.7000,-0.000932
80.541,60.7000,-0.000932
80.557,60.7000,-0.000932
80.573,60.7000,-0.000970
80.589,60.7000,-0.000970
80.605,60.7000,-0.000970
80.621,60.7000,-0.000970
80.637,60.7000,-0.000970
80.653,60.7000,-0.000970
80.669,60.7000,-0.000970
80.685,60.7000,-0.000970
80.701,60.7000,-0.000970
80.717,60.7000,-0.000970
80.736,60.7000,-0.000970
80.764,60.7000,-0.000970
80.795,60.7000,-0.000970
80.812,60.7000,-0.000970
80.827,60.7000,-0.000941
80.843,60.7000,-0.000941
80.859,60.7000,-0.000941
80.879,60.7000,-0.000941
80.903,60.7000,-0.000941
80.928,60.7000,-0.000941
80.950,60.7000,-0.000941
80.971,60.7000,-0.000941
80.987,60.7000,-0.000941
81.003,60.7000,-0.000941
81.019,60.7000,-0.000941
81.035,60.7000,-0.000941
81.051,60.7000,-0.000941
81.067,60.7000,-0.000857
81.083,60.7000,-0.000857
81.099,60.7000,-0.000857
81.115,60.7000,-0.000857
81.131,60.7000,-0.000857
81.147,60.7000,-0.000857
81.163,60.7000,-0.000857
81.179,60.7000,-0.000857
81.196,60.7000,-0.000857
81.211,60.7000,-0.000857
81.226,60.7000,-0.000857
81.243,60.7000,-0.000857
81.258,60.7000,-0.000857
81.275,60.7000,-0.000857
81.292,60.7000,-0.000857
81.322,60.7000,-0.000857
81.350,60.7000,-0.000866
81.365,60.7000,-0.000866
81.381,60.7000,-0.000866
81.398,60.7000,-0.000866
81.417,60.7000,-0.000866
81.445,60.7000,-0.000866
81.462,60.7000,-0.000866
81.478,60.7000,-0.000866
81.494,60.7000,-0.000866
81.511,60.7000,-0.000866
81.538,60.7000,-0.000866
81.558,60.7000,-0.000866
81.574,60.7000,-0.000875
81.589,60.7000,-0.000875
81.607,60.7000,-0.000875
81.631,60.7000,-0.000875
81.647,60.7000,-0.000875
81.678,60.7000,-0.000875
81.708,60.7000,-0.000875
81.724,60.7000,-0.000875
81.740,60.7000,-0.000875
81.756,60.7000,-0.000875
81.787,60.7000,-0.000875
81.818,60.7000,-0.000875
81.833,60.7000,-0.000922
81.864,60.7000,-0.000922
81.880,60.7000,-0.000922
81.896,60.7000,-0.000922
81.927,60.7000,-0.000922
81.958,60.7000,-0.000922
81.973,60.7000,-0.000922
81.989,60.7000,-0.000922
82.006,60.7000,-0.000922
82.022,60.7000,-0.000922
82.050,60.7000,-0.000960
82.070,60.7000,-0.000960
82.085,60.7000,-0.000960
82.103,60.7000,-0.000960
82.118,60.7000,-0.000960
82.133,60.7000,-0.000960
82.149,60.7000,-0.000960
82.165,60.7000,-0.000960
82.181,60.7000,-0.000960
82.197,60.7000,-0.000960
82.222,60.7000,-0.000960
82.250,60.7000,-0.000960
82.280,60.7000,-0.000960
82.310,60.7000,-0.000894
82.325,60.7000,-0.000894
82.341,60.7000,-0.000894
82.357,60.7000,-0.000894
82.373,60.7000,-0.000894
82.396,60.7000,-0.000894
82.418,60.7000,-0.000894
82.434,60.7000,-0.000894
82.450,60.7000,-0.000894
82.481,60.7000,-0.000894
82.511,60.7000,-0.000894
82.527,60.7000,-0.000894
82.559,60.7000,-0.000875
82.589,60.7000,-0.000875
82.605,60.7000,-0.000875
82.620,60.7000,-0.000875
82.635,60.7000,-0.000875
82.651,60.7000,-0.000875
82.667,60.7000,-0.000875
82.684,60.7000,-0.000875
82.700,60.7000,-0.000875
82.715,60.7000,-0.000875
82.731,60.7000,-0.000875
82.748,60.7000,-0.000875
82.768,60.7000,-0.000875
82.791,60.7000,-0.000875
82.811,60.7000,-0.000875
82.828,60.7000,-0.000875
82.843,60.7000,-0.000875
82.859,60.7000,-0.000875
82.875,60.7000,-0.000875
82.892,60.7000,-0.000875
82.907,60.7000,-0.000875
82.923,60.7000,-0.000875
82.945,60.7000,-0.000875
82.961,60.7000,-0.000875
82.977,60.7000,-0.000875
82.993,60.7000,-0.000875
83.010,60.6998,-0.000875
83.025,60.6994,-0.000875
83.041,60.6989,-0.000875
83.057,60.6982,-0.000875
83.075,60.6971,-0.000866
83.101,60.6951,-0.000866
83.121,60.6932,-0.000866
83.137,60.6914,-0.000866
83.153,60.6895,-0.000866
83.169,60.6874,-0.000866
83.185,60.6852,-0.000866
83.201,60.6826,-0.000866
83.217,60.6800,-0.000866
83.233,60.6771,-0.000866
83.249,60.6740,-0.000866
83.265,60.6707,-0.000866
83.281,60.6672,-0.000866
83.297,60.6637,-0.000866
83.313,60.6595,-0.000791
83.329,60.6558,-0.000791
83.345,60.6514,-0.000791
83.361,60.6470,-0.000791
83.377,60.6424,-0.000791
83.393,60.6374,-0.000791
83.409,60.6326,-0.000791
83.425,60.6272,-0.000791
83.441,60.6219,-0.000791
83.457,60.6161,-0.000791
83.474,60.6104,-0.000791
83.501,60.6001,-0.000791
83.517,60.5936,-0.000791
83.533,60.5871,-0.000791
83.549,60.5801,-0.000791
83.565,60.5735,-0.000791
83.581,60.5660,-0.000734
83.597,60.5592,-0.000734
83.615,60.5507,-0.000734
83.644,60.5366,-0.000734
83.661,60.5278,-0.000734
83.679,60.5180,-0.000734
83.695,60.5103,-0.000734
83.710,60.5020,-0.000734
83.737,60.4867,-0.000734
83.757,60.4749,-0.000734
83.773,60.4660,-0.000734
83.789,60.4567,-0.000734
83.805,60.4464,-0.000734
83.821,60.4365,-0.000734
83.837,60.4265,-0.000744
83.853,60.4163,-0.000744
83.869,60.4054,-0.000744
83.885,60.3948,-0.000744
83.901,60.3839,-0.000744
83.917,60.3727,-0.000744
83.933,60.3613,-0.000744
83.949,60.3499,-0.000744
83.965,60.3381,-0.000744
83.981,60.3262,-0.000744
83.997,60.3136,-0.000744
84.013,60.3013,-0.000744
84.040,60.2797,-0.000744
84.056,60.2678,-0.000744
84.072,60.2543,-0.000791
84.090,60.2383,-0.000791
84.106,60.2255,-0.000791
84.128,60.2069,-0.000791
84.152,60.1862,-0.000791
84.183,60.1584,-0.000791
84.199,60.1442,-0.000791
84.215,60.1294,-0.000791
84.231,60.1140,-0.000791
84.247,60.0985,-0.000791
84.276,60.0709,-0.000791
84.297,60.0498,-0.000791
84.322,60.0246,-0.000744
84.342,60.0043,-0.000744
84.360,59.9859,-0.000744
84.383,59.9615,-0.000744
84.414,59.9294,-0.000744
84.430,59.9116,-0.000744
84.460,59.8783,-0.000744
84.496,59.8377,-0.000744
84.522,59.8082,-0.000744
84.552,59.7720,-0.000744
84.582,59.7364,-0.000659
84.600,59.7153,-0.000659
84.615,59.6968,-0.000659
84.630,59.6772,-0.000659
84.647,59.6560,-0.000659
84.663,59.6360,-0.000659
84.691,59.6001,-0.000659
84.710,59.5757,-0.000659
84.727,59.5535,-0.000659
84.742,59.5332,-0.000659
84.759,59.5105,-0.000659
84.784,59.4762,-0.000659
84.806,59.4467,-0.000659
84.822,59.4250,-0.000612
84.838,59.4026,-0.000612
84.854,59.3789,-0.000612
84.870,59.3572,-0.000612
84.886,59.3345,-0.000612
84.902,59.3114,-0.000612
84.918,59.2878,-0.000612
84.934,59.2647,-0.000612
84.950,59.2409,-0.000612
84.966,59.2172,-0.000612
84.983,59.1919,-0.000612
84.998,59.1686,-0.000612
85.014,59.1443,-0.000612
85.035,59.1106,-0.000612
85.061,59.0719,-0.000584
85.078,59.0443,-0.000584
85.095,59.0184,-0.000584
85.116,58.9834,-0.000584
85.132,58.9568,-0.000584
85.148,58.9316,-0.000584
85.164,58.9057,-0.000584
85.181,58.8788,-0.000584
85.196,58.8526,-0.000584
85.212,58.8257,-0.000584
85.228,58.7988,-0.000584
85.244,58.7702,-0.000584
85.260,58.7439,-0.000584
85.276,58.7163,-0.000584
85.292,58.6885,-0.000584
85.308,58.6605,-0.000584
85.325,58.6305,-0.000555
85.340,58.6041,-0.000555
85.357,58.5733,-0.000555
85.383,58.5262,-0.000555
85.404,58.4876,-0.000555
85.422,58.4562,-0.000555
85.437,58.4284,-0.000555
85.452,58.4000,-0.000555
85.468,58.3700,-0.000555
85.485,58.3388,-0.000555
85.500,58.3091,-0.000555
85.516,58.2789,-0.000555
85.532,58.2481,-0.000555
85.548,58.2166,-0.000555
85.565,58.1849,-0.000480
85.580,58.1547,-0.000480
85.597,58.1211,-0.000480
85.613,58.0901,-0.000480
85.628,58.0596,-0.000480
85.644,58.0270,-0.000480
85.666,57.9829,-0.000480
85.682,57.9500,-0.000480
85.698,57.9166,-0.000480
85.714,57.8848,-0.000480
85.731,57.8490,-0.000480
85.754,57.8017,-0.000480
85.785,57.7364,-0.000480
85.800,57.7020,-0.000480
85.816,57.6704,-0.000348
85.832,57.6352,-0.000348
85.863,57.5712,-0.000348
85.878,57.5382,-0.000348
85.894,57.5045,-0.000348
85.925,57.4397,-0.000348
85.943,57.4051,-0.000348
85.972,57.3458,-0.000348
86.003,57.2843,-0.000348
86.018,57.2534,-0.000348
86.035,57.2201,-0.000348
86.050,57.1896,-0.000348
86.066,57.1594,-0.000395
86.082,57.1266,-0.000395
86.099,57.0948,-0.000395
86.118,57.0570,-0.000395
86.141,57.0148,-0.000395
86.162,56.9756,-0.000395
86.178,56.9446,-0.000395
86.194,56.9155,-0.000395
86.218,56.8717,-0.000395
86.234,56.8422,-0.000395
86.250,56.8130,-0.000395
86.266,56.7851,-0.000395
86.283,56.7541,-0.000395
86.310,56.7071,-0.000452
86.330,56.6713,-0.000452
86.346,56.6426,-0.000452
86.362,56.6150,-0.000452
86.378,56.5887,-0.000452
86.394,56.5606,-0.000452
86.411,56.5329,-0.000452
86.433,56.4954,-0.000452
86.448,56.4690,-0.000452
86.478,56.4196,-0.000452
86.494,56.3932,-0.000452
86.510,56.3680,-0.000452
86.525,56.3441,-0.000452
86.540,56.3190,-0.000452
86.556,56.2936,-0.000329
86.572,56.2692,-0.000329
86.589,56.2431,-0.000329
86.619,56.1970,-0.000329
86.635,56.1710,-0.000329
86.652,56.1470,-0.000329
86.681,56.1042,-0.000329
86.698,56.0788,-0.000329
86.714,56.0546,-0.000329
86.730,56.0317,-0.000329
86.747,56.0079,-0.000329
86.772,55.9718,-0.000329
86.789,55.9466,-0.000329
86.805,55.9256,-0.000217
86.821,55.9032,-0.000217
86.837,55.8822,-0.000217
86.867,55.8399,-0.000217
86.882,55.8203,-0.000217
86.899,55.7972,-0.000217
86.915,55.7771,-0.000217
86.931,55.7571,-0.000217
86.946,55.7365,-0.000217
86.963,55.7160,-0.000217
86.979,55.6956,-0.000217
86.994,55.6761,-0.000217
87.011,55.6548,-0.000217
87.027,55.6360,-0.000217
87.043,55.6161,-0.000217
87.059,55.5972,-0.000113
87.075,55.5787,-0.000113
87.090,55.5600,-0.000113
87.106,55.5413,-0.000113
87.122,55.5228,-0.000113
87.139,55.5041,-0.000113
87.155,55.4854,-0.000113
87.171,55.4680,-0.000113
87.187,55.4505,-0.000113
87.202,55.4331,-0.000113
87.218,55.4152,-0.000113
87.234,55.3988,-0.000113
87.251,55.3809,-0.000113
87.266,55.3652,-0.000113
87.291,55.3402,-0.000113
87.306,55.3240,-0.000113
87.323,55.3076,-0.000075
87.339,55.2913,-0.000075
87.354,55.2764,-0.000075
87.371,55.2610,-0.000075
87.386,55.2459,-0.000075
87.403,55.2301,-0.000075
87.419,55.2155,-0.000075
87.435,55.2010,-0.000075
87.450,55.1866,-0.000075
87.466,55.1721,-0.000075
87.482,55.1581,-0.000075
87.498,55.1442,-0.000075
87.514,55.1305,-0.000075
87.530,55.1169,-0.000075
87.547,55.1032,-0.000075
87.563,55.0900,-0.000009
87.580,55.0762,-0.000009
87.595,55.0637,-0.000009
87.626,55.0394,-0.000009
87.643,55.0266,-0.000009
87.659,55.0151,-0.000009
87.674,55.0038,-0.000009
87.691,54.9916,-0.000009
87.706,54.9806,-0.000009
87.723,54.9693,-0.000009
87.738,54.9583,-0.000009
87.756,54.9466,-0.000009
87.771,54.9363,-0.000009
87.795,54.9202,-0.000009
87.818,54.9063,-0.000009
87.834,54.8964,0.000000
87.851,54.8860,0.000000
87.877,54.8703,0.000000
87.898,54.8588,0.000000
87.914,54.8497,0.000000
87.931,54.8411,0.000000
87.946,54.8327,0.000000
87.962,54.8241,0.000000
87.980,54.8156,0.000000
88.010,54.8009,0.000000
88.026,54.7931,0.000000
88.042,54.7857,0.000000
88.058,54.7787,0.000000
88.075,54.7715,-0.000433
88.090,54.7649,-0.000433
88.107,54.7582,-0.000433
88.122,54.7520,-0.000433
88.138,54.7458,-0.000433
88.154,54.7397,-0.000433
88.171,54.7338,-0.000433
88.186,54.7284,-0.000433
88.202,54.7229,-0.000433
88.219,54.7177,-0.000433
88.234,54.7127,-0.000433
88.250,54.7079,-0.000433
88.266,54.7031,-0.000433
88.282,54.6987,-0.000433
88.298,54.6945,-0.000433
88.314,54.6905,-0.000433
88.338,54.6848,-0.000810
88.354,54.6811,-0.000810
88.370,54.6778,-0.000810
88.386,54.6745,-0.000810
88.402,54.6714,-0.000810
88.418,54.6688,-0.000810
88.434,54.6663,-0.000810
88.450,54.6638,-0.000810
88.466,54.6616,-0.000810
88.482,54.6596,-0.000810
88.498,54.6577,-0.000810
88.514,54.6561,-0.000810
88.530,54.6548,-0.000810
88.546,54.6535,-0.000810
88.562,54.6524,-0.000781
88.578,54.6515,-0.000781
88.594,54.6509,-0.000781
88.610,54.6504,-0.000781
88.626,54.6502,-0.000781
88.642,54.6501,-0.000781
88.659,54.6501,-0.000781
88.676,54.6501,-0.000781
88.692,54.6501,-0.000781
88.723,54.6501,-0.000781
88.752,54.6501,-0.000781
88.776,54.6501,-0.000781
88.798,54.6501,-0.000781
88.818,54.6501,-0.000753
88.834,54.6502,-0.000753
88.850,54.6506,-0.000753
88.866,54.6511,-0.000753
88.889,54.6520,-0.000753
88.906,54.6532,-0.000753
88.922,54.6543,-0.000753
88.939,54.6558,-0.000753
88.954,54.6573,-0.000753
88.970,54.6591,-0.000753
88.987,54.6611,-0.000753
89.017,54.6653,-0.000753
89.034,54.6679,-0.000753
89.050,54.6708,-0.000753
89.066,54.6736,-0.000800
89.082,54.6767,-0.000800
89.098,54.6801,-0.000800
89.114,54.6835,-0.000800
89.131,54.6875,-0.000800
89.146,54.6914,-0.000800
89.162,54.6952,-0.000800
89.178,54.6994,-0.000800
89.194,54.7040,-0.000800
89.210,54.7086,-0.000800
89.226,54.7136,-0.000800
89.242,54.7186,-0.000800
89.258,54.7240,-0.000800
89.274,54.7293,-0.000800
89.290,54.7350,-0.000800
89.306,54.7408,-0.000800
89.322,54.7468,-0.000800
89.338,54.7531,-0.000922
89.354,54.7594,-0.000922
89.370,54.7659,-0.000922
89.386,54.7730,-0.000922
89.402,54.7799,-0.000922
89.430,54.7932,-0.000922
89.446,54.8001,-0.000922
89.461,54.8079,-0.000922
89.478,54.8156,-0.000922
89.494,54.8244,-0.000922
89.513,54.8337,-0.000922
89.542,54.8496,-0.000922
89.559,54.8589,-0.000922
89.588,54.8758,-0.000913
89.606,54.8861,-0.000913
89.621,54.8960,-0.000913
89.638,54.9055,-0.000913
89.654,54.9156,-0.000913
89.669,54.9255,-0.000913
89.687,54.9369,-0.000913
89.713,54.9548,-0.000913
89.734,54.9694,-0.000913
89.750,54.9802,-0.000913
89.766,54.9914,-0.000913
89.781,55.0027,-0.000913
89.797,55.0147,-0.000913
89.813,55.0266,-0.000913
89.829,55.0386,-0.000810
89.845,55.0510,-0.000810
89.861,55.0636,-0.000810
89.878,55.0767,-0.000810
89.894,55.0894,-0.000810
89.909,55.1024,-0.000810
89.925,55.1156,-0.000810
89.941,55.1294,-0.000810
89.958,55.1435,-0.000810
89.990,55.1716,-0.000810
90.006,55.1857,-0.000810
90.021,55.1995,-0.000810
90.037,55.2145,-0.000810
90.056,55.2322,-0.000810
90.075,55.2496,-0.000810
90.101,55.2746,-0.000838
90.118,55.2913,-0.000838
90.147,55.3202,-0.000838
90.164,55.3385,-0.000838
90.183,55.3577,-0.000838
90.208,55.3840,-0.000838
90.228,55.4047,-0.000838
90.245,55.4227,-0.000838
90.261,55.4400,-0.000838
90.277,55.4572,-0.000838
90.292,55.4748,-0.000838
90.310,55.4961,-0.000838
90.332,55.5195,-0.000838
90.363,55.5559,-0.000800
90.379,55.5752,-0.000800
90.409,55.6110,-0.000800
90.445,55.6545,-0.000800
90.470,55.6848,-0.000800
90.500,55.7239,-0.000800
90.517,55.7444,-0.000800
90.542,55.7778,-0.000800
90.559,55.7994,-0.000800
90.574,55.8200,-0.000781
90.590,55.8414,-0.000781
90.607,55.8646,-0.000781
90.626,55.8900,-0.000781
90.654,55.9294,-0.000781
90.672,55.9537,-0.000781
90.700,55.9939,-0.000781
90.719,56.0211,-0.000781
90.737,56.0477,-0.000781
90.761,56.0824,-0.000781
90.782,56.1129,-0.000781
90.798,56.1377,-0.000781
90.815,56.1625,-0.000781
90.830,56.1851,-0.000810
90.846,56.2100,-0.000810
90.863,56.2353,-0.000810
90.878,56.2593,-0.000810
90.894,56.2843,-0.000810
90.910,56.3099,-0.000810
90.927,56.3360,-0.000810
90.942,56.3608,-0.000810
90.958,56.3868,-0.000810
90.974,56.4133,-0.000810
90.991,56.4396,-0.000810
91.006,56.4654,-0.000810
91.022,56.4927,-0.000810
91.038,56.5185,-0.000810
91.064,56.5630,-0.000810
91.079,56.5889,-0.000810
91.095,56.6158,-0.000584
91.112,56.6449,-0.000584
91.127,56.6714,-0.000584
91.143,56.6993,-0.000584
91.159,56.7279,-0.000584
91.175,56.7562,-0.000584
91.191,56.7867,-0.000584
91.207,56.8134,-0.000584
91.223,56.8433,-0.000584
91.240,56.8732,-0.000584
91.255,56.9011,-0.000584
91.271,56.9326,-0.000584
91.290,56.9664,-0.000584
91.317,57.0174,-0.000584
91.335,57.0524,-0.000395
91.351,57.0820,-0.000395
91.367,57.1140,-0.000395
91.383,57.1437,-0.000395
91.399,57.1748,-0.000395
91.418,57.2152,-0.000395
91.433,57.2431,-0.000395
91.455,57.2859,-0.000395
91.470,57.3166,-0.000395
91.486,57.3502,-0.000395
91.517,57.4112,-0.000395
91.549,57.4774,-0.000395
91.564,57.5077,-0.000395
91.595,57.5729,-0.000405
91.626,57.6390,-0.000405
91.658,57.7062,-0.000405
91.687,57.7689,-0.000405
91.704,57.8040,-0.000405
91.734,57.8643,-0.000405
91.751,57.8995,-0.000405
91.767,57.9327,-0.000405
91.783,57.9648,-0.000405
91.799,57.9968,-0.000405
91.815,58.0277,-0.000414
91.831,58.0596,-0.000414
91.847,58.0930,-0.000414
91.863,58.1226,-0.000414
91.880,58.1571,-0.000414
91.895,58.1857,-0.000414
91.911,58.2156,-0.000414
91.928,58.2485,-0.000414
91.946,58.2836,-0.000414
91.964,58.3176,-0.000414
91.995,58.3740,-0.000414
92.026,58.4335,-0.000414
92.042,58.4614,-0.000414
92.073,58.5181,-0.000414
92.104,58.5723,-0.000348
92.135,58.6279,-0.000348
92.151,58.6545,-0.000348
92.167,58.6822,-0.000348
92.183,58.7107,-0.000348
92.199,58.7377,-0.000348
92.215,58.7655,-0.000348
92.231,58.7910,-0.000348
92.247,58.8186,-0.000348
92.263,58.8447,-0.000348
92.279,58.8724,-0.000348
92.295,58.8972,-0.000348
92.312,58.9247,-0.000348
92.327,58.9497,-0.000348
92.343,58.9740,-0.000358
92.359,58.9999,-0.000358
92.375,59.0260,-0.000358
92.391,59.0495,-0.000358
92.407,59.0750,-0.000358
92.423,59.0998,-0.000358
92.439,59.1238,-0.000358
92.455,59.1479,-0.000358
92.471,59.1725,-0.000358
92.487,59.1961,-0.000358
92.504,59.2204,-0.000358
92.519,59.2438,-0.000358
92.535,59.2658,-0.000358
92.552,59.2915,-0.000358
92.582,59.3332,-0.000471
92.599,59.3575,-0.000471
92.614,59.3809,-0.000471
92.638,59.4112,-0.000471
92.655,59.4344,-0.000471
92.674,59.4607,-0.000471
92.690,59.4815,-0.000471
92.705,59.5024,-0.000471
92.736,59.5430,-0.000471
92.766,59.5806,-0.000471
92.781,59.6002,-0.000471
92.804,59.6310,-0.000471
92.827,59.6570,-0.000471
92.845,59.6793,-0.000640
92.862,59.6992,-0.000640
92.878,59.7193,-0.000640
92.904,59.7489,-0.000640
92.934,59.7846,-0.000640
92.964,59.8175,-0.000640
92.996,59.8531,-0.000640
93.026,59.8853,-0.000640
93.057,59.9191,-0.000640
93.072,59.9357,-0.000715
93.103,59.9668,-0.000715
93.120,59.9838,-0.000715
93.150,60.0133,-0.000715
93.166,60.0287,-0.000715
93.182,60.0441,-0.000715
93.197,60.0590,-0.000715
93.213,60.0741,-0.000715
93.235,60.0943,-0.000715
93.258,60.1150,-0.000715
93.278,60.1325,-0.000715
93.294,60.1469,-0.000715
93.310,60.1607,-0.000715
93.326,60.1749,-0.000706
93.342,60.1877,-0.000706
93.358,60.2011,-0.000706
93.373,60.2139,-0.000706
93.389,60.2265,-0.000706
93.406,60.2397,-0.000706
93.421,60.2521,-0.000706
93.437,60.2642,-0.000706
93.454,60.2766,-0.000706
93.469,60.2883,-0.000706
93.486,60.3007,-0.000706
93.502,60.3123,-0.000706
93.521,60.3256,-0.000706
93.537,60.3374,-0.000706
93.554,60.3487,-0.000706
93.569,60.3584,-0.000715
93.585,60.3692,-0.000715
93.600,60.3793,-0.000715
93.617,60.3896,-0.000715
93.647,60.4078,-0.000715
93.677,60.4265,-0.000715
93.696,60.4369,-0.000715
93.723,60.4518,-0.000715
93.742,60.4620,-0.000715
93.758,60.4701,-0.000715
93.775,60.4793,-0.000715
93.800,60.4918,-0.000715
93.821,60.5019,-0.000715
93.837,60.5094,-0.000715
93.853,60.5167,-0.000715
93.869,60.5239,-0.000715
93.885,60.5306,-0.000715
93.901,60.5372,-0.000715
93.917,60.5439,-0.000715
93.934,60.5505,-0.000715
93.949,60.5562,-0.000715
93.965,60.5621,-0.000715
93.981,60.5680,-0.000715
93.997,60.5737,-0.000715
94.013,60.5788,-0.000715
94.029,60.5840,-0.000715
94.045,60.5890,-0.000715
94.062,60.5939,-0.000715
94.077,60.5983,-0.000744
94.093,60.6027,-0.000744
94.110,60.6072,-0.000744
94.134,60.6131,-0.000744
94.160,60.6188,-0.000744
94.190,60.6251,-0.000744
94.205,60.6280,-0.000744
94.232,60.6326,-0.000744
94.249,60.6352,-0.000744
94.264,60.6374,-0.000744
94.281,60.6396,-0.000744
94.296,60.6414,-0.000744
94.312,60.6432,-0.000744
94.328,60.6447,-0.000706
94.344,60.6461,-0.000706
94.361,60.6473,-0.000706
94.377,60.6482,-0.000706
94.406,60.6494,-0.000706
94.426,60.6499,-0.000706
94.452,60.6501,-0.000706
94.472,60.6501,-0.000706
94.488,60.6501,-0.000706
94.504,60.6501,-0.000706
94.520,60.6501,-0.000706
94.536,60.6501,-0.000706
94.552,60.6501,-0.000706
94.568,60.6501,-0.000706
94.584,60.6501,-0.000753
94.600,60.6501,-0.000753
94.616,60.6501,-0.000753
94.632,60.6501,-0.000753
94.648,60.6501,-0.000753
94.664,60.6501,-0.000753
94.680,60.6501,-0.000753
94.696,60.6501,-0.000753
94.712,60.6501,-0.000753
94.728,60.6501,-0.000753
94.754,60.6501,-0.000753
94.770,60.6501,-0.000753
94.786,60.6501,-0.000753
94.802,60.6501,-0.000753
94.818,60.6501,-0.000828
94.834,60.6501,-0.000828
94.850,60.6501,-0.000828
94.866,60.6501,-0.000828
94.882,60.6501,-0.000828
94.898,60.6501,-0.000828
94.914,60.6501,-0.000828
94.930,60.6501,-0.000828
