Elapsed Time (s),Position (mm),Force (N)
-0.016,62.9501,-0.000838
0.000,62.9501,-0.000838
0.017,62.9501,-0.000838
0.032,62.9501,-0.000838
0.048,62.9501,-0.000838
0.064,62.9501,-0.000838
0.082,62.9501,-0.000838
0.111,62.9501,-0.000838
0.129,62.9501,-0.000838
0.146,62.9501,-0.000838
0.173,62.9501,-0.000838
0.192,62.9501,-0.000838
0.208,62.9501,-0.000838
0.224,62.9501,-0.000838
0.240,62.9501,-0.000885
0.256,62.9501,-0.000885
0.276,62.9501,-0.000885
0.297,62.9501,-0.000885
0.328,62.9501,-0.000885
0.358,62.9501,-0.000885
0.388,62.9501,-0.000885
0.404,62.9501,-0.000885
0.419,62.9501,-0.000885
0.450,62.9501,-0.000885
0.474,62.9501,-0.000885
0.490,62.9501,-0.000885
0.506,62.9501,-0.000875
0.522,62.9501,-0.000875
0.538,62.9501,-0.000875
0.554,62.9501,-0.000875
0.570,62.9501,-0.000875
0.586,62.9501,-0.000875
0.601,62.9501,-0.000875
0.618,62.9501,-0.000875
0.635,62.9501,-0.000875
0.650,62.9501,-0.000875
0.666,62.9501,-0.000875
0.682,62.9501,-0.000875
0.697,62.9501,-0.000875
0.714,62.9501,-0.000875
0.729,62.9501,-0.000922
0.746,62.9501,-0.000922
0.762,62.9501,-0.000922
0.779,62.9501,-0.000922
0.794,62.9501,-0.000922
0.809,62.9501,-0.000922
0.827,62.9501,-0.000922
0.850,62.9501,-0.000922
0.881,62.9501,-0.000922
0.912,62.9501,-0.000922
0.942,62.9501,-0.000922
0.958,62.9501,-0.000922
0.989,62.9501,-0.000922
1.020,62.9501,-0.000941
1.035,62.9501,-0.000941
1.066,62.9501,-0.000941
1.088,62.9501,-0.000941
1.113,62.9501,-0.000941
1.130,62.9501,-0.000941
1.146,62.9501,-0.000941
1.162,62.9501,-0.000941
1.180,62.9501,-0.000941
1.207,62.9501,-0.000941
1.226,62.9501,-0.000941
1.242,62.9501,-0.000941
1.258,62.9501,-0.000941
1.273,62.9501,-0.000913
1.290,62.9501,-0.000913
1.306,62.9501,-0.000913
1.322,62.9501,-0.000913
1.337,62.9501,-0.000913
1.354,62.9501,-0.000913
1.370,62.9501,-0.000913
1.385,62.9501,-0.000913
1.402,62.9501,-0.000913
1.418,62.9501,-0.000913
1.434,62.9501,-0.000913
1.451,62.9501,-0.000913
1.472,62.9501,-0.000913
1.488,62.9501,-0.000913
1.518,62.9501,-0.000913
1.549,62.9501,-0.000866
1.565,62.9501,-0.000866
1.581,62.9501,-0.000866
1.597,62.9501,-0.000866
1.628,62.9501,-0.000866
1.659,62.9501,-0.000866
1.674,62.9501,-0.000866
1.690,62.9501,-0.000866
1.705,62.9501,-0.000866
1.722,62.9501,-0.000866
1.737,62.9501,-0.000866
1.753,62.9501,-0.000885
1.770,62.9501,-0.000885
1.785,62.9501,-0.000885
1.801,62.9501,-0.000885
1.817,62.9501,-0.000885
1.833,62.9501,-0.000885
1.850,62.9501,-0.000885
1.865,62.9501,-0.000885
1.882,62.9501,-0.000885
1.897,62.9501,-0.000885
1.913,62.9501,-0.000885
1.930,62.9501,-0.000885
1.945,62.9501,-0.000885
1.961,62.9501,-0.000885
1.978,62.9501,-0.000885
1.993,62.9501,-0.000885
2.009,62.9501,-0.000875
2.025,62.9501,-0.000875
2.042,62.9501,-0.000875
2.057,62.9501,-0.000875
2.073,62.9501,-0.000875
2.095,62.9501,-0.000875
2.111,62.9501,-0.000875
2.127,62.9501,-0.000875
2.143,62.9501,-0.000875
2.160,62.9501,-0.000875
2.177,62.9501,-0.000875
2.193,62.9501,-0.000875
2.218,62.9501,-0.000875
2.234,62.9501,-0.000875
2.255,62.9501,-0.000838
2.271,62.9501,-0.000838
2.288,62.9501,-0.000838
2.311,62.9501,-0.000838
2.342,62.9501,-0.000838
2.372,62.9501,-0.000838
2.388,62.9501,-0.000838
2.419,62.9501,-0.000838
2.450,62.9501,-0.000838
2.480,62.9501,-0.000838
2.511,62.9501,-0.000885
2.528,62.9501,-0.000885
2.543,62.9501,-0.000885
2.559,62.9501,-0.000885
2.575,62.9501,-0.000885
2.591,62.9501,-0.000885
2.607,62.9501,-0.000885
2.623,62.9501,-0.000885
2.650,62.9501,-0.000885
2.666,62.9501,-0.000885
2.682,62.9501,-0.000885
2.698,62.9501,-0.000885
2.716,62.9501,-0.000885
2.733,62.9501,-0.000885
2.759,62.9501,-0.000875
2.778,62.9501,-0.000875
2.795,62.9501,-0.000875
2.821,62.9501,-0.000875
2.842,62.9501,-0.000875
2.858,62.9501,-0.000875
2.874,62.9501,-0.000875
2.890,62.9501,-0.000875
2.907,62.9501,-0.000875
2.924,62.9501,-0.000875
2.945,62.9501,-0.000875
2.975,62.9501,-0.000875
3.005,62.9501,-0.000857
3.036,62.9501,-0.000857
3.052,62.9501,-0.000857
3.082,62.9501,-0.000857
3.100,62.9501,-0.000857
3.128,62.9501,-0.000857
3.146,62.9501,-0.000857
3.162,62.9501,-0.000857
3.178,62.9501,-0.000857
3.203,62.9501,-0.000857
3.220,62.9501,-0.000857
3.236,62.9501,-0.000866
3.252,62.9501,-0.000866
3.270,62.9501,-0.000866
3.297,62.9501,-0.000866
3.316,62.9501,-0.000866
3.332,62.9501,-0.000866
3.348,62.9501,-0.000866
3.363,62.9501,-0.000866
3.381,62.9501,-0.000866
3.406,62.9501,-0.000866
3.428,62.9501,-0.000866
3.444,62.9501,-0.000866
3.461,62.9501,-0.000866
3.483,62.9501,-0.000866
3.514,62.9501,-0.000875
3.531,62.9501,-0.000875
3.561,62.9501,-0.000875
3.591,62.9501,-0.000875
3.607,62.9501,-0.000875
3.622,62.9501,-0.000875
3.653,62.9501,-0.000875
3.683,62.9501,-0.000875
3.704,62.9501,-0.000875
3.728,62.9501,-0.000875
3.745,62.9501,-0.000875
3.760,62.9501,-0.000913
3.776,62.9501,-0.000913
3.792,62.9501,-0.000913
3.808,62.9501,-0.000913
3.827,62.9501,-0.000913
3.854,62.9501,-0.000913
3.873,62.9501,-0.000913
3.890,62.9501,-0.000913
3.916,62.9501,-0.000913
3.936,62.9501,-0.000913
3.957,62.9501,-0.000913
3.979,62.9501,-0.000951
4.001,62.9501,-0.000951
4.017,62.9501,-0.000951
4.033,62.9501,-0.000951
4.049,62.9501,-0.000951
4.065,62.9501,-0.000951
4.081,62.9498,-0.000951
4.096,62.9495,-0.000951
4.112,62.9488,-0.000951
4.129,62.9481,-0.000951
4.145,62.9471,-0.000951
4.160,62.9460,-0.000951
4.177,62.9446,-0.000951
4.192,62.9430,-0.000951
4.208,62.9413,-0.000951
4.224,62.9394,-0.000951
4.241,62.9372,-0.000951
4.256,62.9348,-0.000828
4.273,62.9321,-0.000828
4.290,62.9294,-0.000828
4.306,62.9264,-0.000828
4.338,62.9201,-0.000828
4.368,62.9131,-0.000828
4.385,62.9089,-0.000828
4.400,62.9052,-0.000828
4.416,62.9010,-0.000828
4.433,62.8964,-0.000828
4.449,62.8915,-0.000828
4.465,62.8868,-0.000828
4.480,62.8820,0.000772
4.496,62.8767,0.000772
4.512,62.8712,0.000772
4.529,62.8655,0.000772
4.544,62.8598,0.000772
4.561,62.8533,0.000772
4.577,62.8475,0.000772
4.592,62.8412,0.000772
4.609,62.8342,0.000772
4.625,62.8273,0.000772
4.641,62.8207,0.000772
4.656,62.8138,0.000772
4.672,62.8063,0.000772
4.688,62.7988,0.000772
4.704,62.7911,0.000772
4.720,62.7831,0.000772
4.736,62.7751,0.000772
4.752,62.7666,0.000772
4.768,62.7581,0.000772
4.784,62.7494,0.000772
4.800,62.7405,0.005733
4.817,62.7308,0.005733
4.832,62.7218,0.005733
4.848,62.7121,0.005733
4.872,62.6979,0.005733
4.896,62.6831,0.005733
4.913,62.6724,0.005733
4.929,62.6616,0.005733
4.945,62.6513,0.005733
4.961,62.6401,0.005733
4.976,62.6296,0.005733
4.994,62.6171,0.005733
5.019,62.5991,0.005733
5.049,62.5760,0.014807
5.066,62.5641,0.014807
5.096,62.5409,0.014807
5.112,62.5278,0.014807
5.143,62.5031,0.014807
5.173,62.4774,0.014807
5.204,62.4513,0.014807
5.235,62.4236,0.014807
5.252,62.4090,0.014807
5.281,62.3818,0.028682
5.298,62.3664,0.028682
5.329,62.3367,0.028682
5.358,62.3081,0.028682
5.374,62.2919,0.028682
5.390,62.2760,0.028682
5.406,62.2604,0.028682
5.422,62.2435,0.028682
5.438,62.2271,0.028682
5.454,62.2103,0.028682
5.471,62.1928,0.028682
5.487,62.1753,0.028682
5.513,62.1467,0.048393
5.534,62.1231,0.048393
5.550,62.1042,0.048393
5.566,62.0863,0.048393
5.582,62.0688,0.048393
5.599,62.0486,0.048393
5.614,62.0308,0.048393
5.630,62.0126,0.048393
5.646,61.9927,0.048393
5.663,61.9725,0.048393
5.678,61.9537,0.048393
5.694,61.9346,0.048393
5.710,61.9147,0.048393
5.726,61.8943,0.048393
5.743,61.8732,0.048393
5.763,61.8474,0.074957
5.778,61.8262,0.074957
5.795,61.8062,0.074957
5.810,61.7845,0.074957
5.841,61.7430,0.074957
5.872,61.7023,0.074957
5.902,61.6601,0.074957
5.918,61.6380,0.074957
5.934,61.6147,0.074957
5.950,61.5925,0.074957
5.966,61.5692,0.074957
5.982,61.5461,0.074957
5.998,61.5226,0.074957
6.014,61.4993,0.054455
6.030,61.4752,0.054455
6.046,61.4504,0.054455
6.062,61.4268,0.054455
6.078,61.4024,0.054455
6.095,61.3762,0.054455
6.110,61.3530,0.054455
6.126,61.3279,0.054455
6.142,61.3037,0.054455
6.158,61.2781,0.054455
6.175,61.2496,0.054455
6.195,61.2190,0.054455
6.211,61.1929,0.054455
6.226,61.1681,0.054455
6.241,61.1408,0.054455
6.257,61.1166,0.009046
6.273,61.0900,0.009046
6.303,61.0389,0.009046
6.319,61.0118,0.009046
6.334,60.9857,0.009046
6.351,60.9562,0.009046
6.380,60.9053,0.009046
6.409,60.8546,0.009046
6.425,60.8249,0.009046
6.441,60.7978,0.009046
6.457,60.7683,0.009046
6.473,60.7381,0.009046
6.489,60.7082,0.009046
6.505,60.6802,-0.000725
6.520,60.6512,-0.000725
6.537,60.6204,-0.000725
6.553,60.5895,-0.000725
6.568,60.5605,-0.000725
6.585,60.5301,-0.000725
6.605,60.4891,-0.000725
6.627,60.4468,-0.000725
6.648,60.4061,-0.000725
6.665,60.3736,-0.000725
6.680,60.3430,-0.000725
6.697,60.3111,-0.000725
6.712,60.2792,-0.000725
6.730,60.2429,-0.000725
6.745,60.2136,-0.000725
6.760,60.1816,-0.000687
6.777,60.1489,-0.000687
6.792,60.1155,-0.000687
6.808,60.0827,-0.000687
6.824,60.0492,-0.000687
6.840,60.0156,-0.000687
6.856,59.9811,-0.000687
6.873,59.9469,-0.000687
6.889,59.9119,-0.000687
6.906,59.8759,-0.000687
6.936,59.8123,-0.000687
6.965,59.7515,-0.000687
6.981,59.7193,-0.000687
6.997,59.6869,-0.000650
7.012,59.6548,-0.000650
7.033,59.6106,-0.000650
7.060,59.5569,-0.000650
7.077,59.5252,-0.000650
7.093,59.4921,-0.000650
7.109,59.4608,-0.000650
7.124,59.4309,-0.000650
7.141,59.3979,-0.000650
7.157,59.3668,-0.000650
7.184,59.3143,-0.000650
7.204,59.2766,-0.000650
7.221,59.2456,-0.000650
7.236,59.2155,-0.000650
7.253,59.1858,-0.000697
7.269,59.1555,-0.000697
7.286,59.1243,-0.000697
7.309,59.0803,-0.000697
7.325,59.0538,-0.000697
7.356,58.9983,-0.000697
7.386,58.9446,-0.000697
7.417,58.8912,-0.000697
7.447,58.8387,-0.000697
7.478,58.7862,-0.000697
7.493,58.7606,-0.000697
7.508,58.7346,-0.000734
7.525,58.7077,-0.000734
7.540,58.6822,-0.000734
7.556,58.6560,-0.000734
7.573,58.6287,-0.000734
7.589,58.6037,-0.000734
7.604,58.5787,-0.000734
7.620,58.5533,-0.000734
7.637,58.5274,-0.000734
7.652,58.5030,-0.000734
7.669,58.4766,-0.000734
7.684,58.4536,-0.000734
7.700,58.4289,-0.000734
7.717,58.4044,-0.000734
7.732,58.3809,-0.000621
7.748,58.3572,-0.000621
7.765,58.3329,-0.000621
7.780,58.3100,-0.000621
7.796,58.2862,-0.000621
7.812,58.2635,-0.000621
7.829,58.2400,-0.000621
7.844,58.2180,-0.000621
7.860,58.1954,-0.000621
7.877,58.1715,-0.000621
7.894,58.1486,-0.000621
7.924,58.1058,-0.000621
7.941,58.0843,-0.000621
7.956,58.0647,-0.000621
7.972,58.0435,-0.000621
8.001,58.0049,-0.000584
8.032,57.9653,-0.000584
8.048,57.9456,-0.000584
8.066,57.9219,-0.000584
8.095,57.8872,-0.000584
8.112,57.8665,-0.000584
8.129,57.8460,-0.000584
8.144,57.8287,-0.000584
8.160,57.8097,-0.000584
8.176,57.7905,-0.000584
8.192,57.7723,-0.000584
8.208,57.7541,-0.000584
8.225,57.7351,-0.000584
8.240,57.7180,-0.000584
8.256,57.7000,-0.000584
8.272,57.6828,-0.000584
8.288,57.6652,-0.000584
8.305,57.6473,-0.000584
8.320,57.6307,-0.000584
8.336,57.6150,-0.000584
8.352,57.5983,-0.000584
8.368,57.5812,-0.000584
8.384,57.5659,-0.000584
8.400,57.5499,-0.000584
8.417,57.5329,-0.000584
8.433,57.5177,-0.000584
8.451,57.4999,-0.000584
8.482,57.4700,-0.000584
8.513,57.4427,-0.000584
8.543,57.4157,-0.000537
8.559,57.4014,-0.000537
8.575,57.3879,-0.000537
8.591,57.3744,-0.000537
8.608,57.3601,-0.000537
8.635,57.3368,-0.000537
8.655,57.3215,-0.000537
8.671,57.3086,-0.000537
8.687,57.2961,-0.000537
8.704,57.2836,-0.000537
8.719,57.2722,-0.000537
8.735,57.2598,-0.000537
8.751,57.2486,-0.000537
8.767,57.2371,-0.000499
8.783,57.2255,-0.000499
8.800,57.2139,-0.000499
8.815,57.2036,-0.000499
8.831,57.1927,-0.000499
8.847,57.1820,-0.000499
8.863,57.1718,-0.000499
8.879,57.1618,-0.000499
8.895,57.1515,-0.000499
8.911,57.1416,-0.000499
8.927,57.1320,-0.000499
8.943,57.1228,-0.000499
8.959,57.1135,-0.000499
8.983,57.0998,-0.000499
9.005,57.0881,-0.000499
9.023,57.0789,-0.000461
9.040,57.0701,-0.000461
9.055,57.0627,-0.000461
9.071,57.0549,-0.000461
9.097,57.0426,-0.000461
9.113,57.0350,-0.000461
9.129,57.0278,-0.000461
9.145,57.0210,-0.000461
9.162,57.0139,-0.000461
9.177,57.0076,-0.000461
9.193,57.0015,-0.000461
9.209,56.9953,-0.000461
9.228,56.9877,-0.000461
9.255,56.9786,-0.000405
9.273,56.9724,-0.000405
9.289,56.9673,-0.000405
9.305,56.9624,-0.000405
9.321,56.9574,-0.000405
9.337,56.9529,-0.000405
9.353,56.9483,-0.000405
9.368,56.9442,-0.000405
9.384,56.9402,-0.000405
9.401,56.9361,-0.000405
9.417,56.9326,-0.000405
9.433,56.9291,-0.000405
9.448,56.9260,-0.000405
9.465,56.9229,-0.000405
9.480,56.9201,-0.000405
9.496,56.9173,-0.000395
9.513,56.9149,-0.000395
9.529,56.9124,-0.000395
9.550,56.9098,-0.000395
9.579,56.9065,-0.000395
9.610,56.9039,-0.000395
9.625,56.9028,-0.000395
9.655,56.9012,-0.000395
9.678,56.9005,-0.000395
9.701,56.9001,-0.000395
9.718,56.9001,-0.000395
9.735,56.9001,-0.000395
9.751,56.9001,-0.000358
9.767,56.9001,-0.000358
9.783,56.9001,-0.000358
9.798,56.9001,-0.000358
9.815,56.9001,-0.000358
9.830,56.9001,-0.000358
9.847,56.9001,-0.000358
9.862,56.9003,-0.000358
9.879,56.9008,-0.000358
9.901,56.9017,-0.000358
9.931,56.9036,-0.000358
9.947,56.9048,-0.000358
9.978,56.9079,-0.000358
9.994,56.9096,-0.000292
10.011,56.9119,-0.000292
10.042,56.9163,-0.000292
10.057,56.9187,-0.000292
10.087,56.9243,-0.000292
10.103,56.9273,-0.000292
10.118,56.9305,-0.000292
10.134,56.9340,-0.000292
10.151,56.9378,-0.000292
10.166,56.9416,-0.000292
10.192,56.9486,-0.000292
10.209,56.9531,-0.000292
10.227,56.9581,-0.000292
10.258,56.9678,-0.000292
10.273,56.9728,-0.000292
10.305,56.9837,-0.000292
10.320,56.9893,-0.000292
10.337,56.9953,-0.000292
10.353,57.0014,-0.000292
10.368,57.0077,-0.000292
10.385,57.0144,-0.000292
10.400,57.0210,-0.000292
10.417,57.0281,-0.000292
10.432,57.0350,-0.000292
10.448,57.0423,-0.000292
10.465,57.0503,-0.000292
10.491,57.0634,-0.000292
10.513,57.0738,-0.000292
10.529,57.0822,-0.000367
10.545,57.0906,-0.000367
10.561,57.0994,-0.000367
10.576,57.1080,-0.000367
10.592,57.1170,-0.000367
10.609,57.1268,-0.000367
10.625,57.1365,-0.000367
10.641,57.1459,-0.000367
10.656,57.1552,-0.000367
10.672,57.1653,-0.000367
10.689,57.1760,-0.000367
10.704,57.1860,-0.000367
10.720,57.1966,-0.000367
10.744,57.2126,-0.000367
10.770,57.2310,-0.000377
10.790,57.2454,-0.000377
10.807,57.2577,-0.000377
10.823,57.2689,-0.000377
10.838,57.2808,-0.000377
10.854,57.2936,-0.000377
10.870,57.3056,-0.000377
10.886,57.3185,-0.000377
10.903,57.3316,-0.000377
10.919,57.3451,-0.000377
10.937,57.3611,-0.000377
10.955,57.3746,-0.000377
10.986,57.4014,-0.000377
11.017,57.4293,-0.000442
11.034,57.4439,-0.000442
11.064,57.4723,-0.000442
11.080,57.4868,-0.000442
11.095,57.5019,-0.000442
11.114,57.5196,-0.000442
11.129,57.5346,-0.000442
11.157,57.5616,-0.000442
11.175,57.5797,-0.000442
11.190,57.5956,-0.000442
11.206,57.6112,-0.000442
11.222,57.6285,-0.000442
11.238,57.6451,-0.000442
11.254,57.6628,-0.000442
11.270,57.6806,-0.000442
11.295,57.7075,-0.000527
11.313,57.7275,-0.000527
11.344,57.7613,-0.000527
11.359,57.7802,-0.000527
11.375,57.7977,-0.000527
11.391,57.8161,-0.000527
11.407,57.8351,-0.000527
11.424,57.8574,-0.000527
11.452,57.8902,-0.000527
11.471,57.9135,-0.000527
11.487,57.9344,-0.000527
11.503,57.9534,-0.000527
11.519,57.9730,-0.000546
11.535,57.9936,-0.000546
11.555,58.0208,-0.000546
11.577,58.0497,-0.000546
11.599,58.0778,-0.000546
11.615,58.0994,-0.000546
11.631,58.1207,-0.000546
11.647,58.1424,-0.000546
11.663,58.1648,-0.000546
11.679,58.1870,-0.000546
11.695,58.2090,-0.000546
11.711,58.2321,-0.000546
11.727,58.2549,-0.000546
11.743,58.2785,-0.000546
11.759,58.3007,-0.000612
11.775,58.3243,-0.000612
11.791,58.3481,-0.000612
11.807,58.3716,-0.000612
11.823,58.3954,-0.000612
11.853,58.4415,-0.000612
11.869,58.4660,-0.000612
11.885,58.4903,-0.000612
11.901,58.5157,-0.000612
11.919,58.5432,-0.000612
11.949,58.5908,-0.000612
11.965,58.6167,-0.000612
11.981,58.6447,-0.000612
11.997,58.6685,-0.000612
12.013,58.6951,-0.000621
12.030,58.7236,-0.000621
12.050,58.7581,-0.000621
12.073,58.7977,-0.000621
12.093,58.8293,-0.000621
12.109,58.8581,-0.000621
12.125,58.8843,-0.000621
12.141,58.9118,-0.000621
12.157,58.9410,-0.000621
12.173,58.9691,-0.000621
12.189,58.9981,-0.000621
12.205,59.0250,-0.000621
12.221,59.0543,-0.000621
12.237,59.0839,-0.000621
12.253,59.1122,-0.000650
12.269,59.1423,-0.000650
12.285,59.1718,-0.000650
12.301,59.2011,-0.000650
12.317,59.2322,-0.000650
12.333,59.2620,-0.000650
12.349,59.2921,-0.000650
12.365,59.3218,-0.000650
12.381,59.3528,-0.000650
12.409,59.4072,-0.000650
12.425,59.4393,-0.000650
12.441,59.4704,-0.000650
12.457,59.5012,-0.000650
12.475,59.5371,-0.000650
12.503,59.5954,-0.000800
12.521,59.6296,-0.000800
12.536,59.6625,-0.000800
12.552,59.6951,-0.000800
12.569,59.7289,-0.000800
12.585,59.7613,-0.000800
12.604,59.8037,-0.000800
12.626,59.8496,-0.000800
12.642,59.8814,-0.000800
12.658,59.9177,-0.000800
12.689,59.9822,-0.000800
12.705,60.0144,-0.000800
12.736,60.0797,-0.000800
12.767,60.1437,-0.000894
12.798,60.2068,-0.000894
12.813,60.2376,-0.000894
12.829,60.2686,-0.000894
12.845,60.3007,-0.000894
12.875,60.3600,-0.000894
12.891,60.3904,-0.000894
12.907,60.4226,-0.000894
12.938,60.4811,-0.000894
12.967,60.5371,-0.000894
12.983,60.5668,-0.000894
12.998,60.5966,-0.000810
13.014,60.6260,-0.000810
13.030,60.6556,-0.000810
13.046,60.6844,-0.000810
13.062,60.7137,-0.000810
13.078,60.7425,-0.000810
13.096,60.7746,-0.000810
13.114,60.8071,-0.000810
13.138,60.8502,-0.000810
13.159,60.8856,-0.000810
13.175,60.9137,-0.000810
13.190,60.9402,-0.000810
13.207,60.9682,-0.000810
13.222,60.9951,-0.000810
13.239,61.0239,-0.000810
13.254,61.0487,-0.000744
13.270,61.0757,-0.000744
13.287,61.1037,-0.000744
13.303,61.1292,-0.000744
13.319,61.1551,-0.000744
13.335,61.1811,-0.000744
13.350,61.2064,-0.000744
13.366,61.2320,-0.000744
13.383,61.2577,-0.000744
13.398,61.2835,-0.000744
13.415,61.3075,-0.000744
13.430,61.3318,-0.000744
13.446,61.3564,-0.000744
13.464,61.3852,-0.000744
13.492,61.4258,-0.000744
13.526,61.4753,-0.000734
13.554,61.5167,-0.000734
13.572,61.5434,-0.000734
13.589,61.5670,-0.000734
13.604,61.5887,-0.000734
13.621,61.6115,-0.000734
13.636,61.6331,-0.000734
13.653,61.6558,-0.000734
13.669,61.6775,-0.000734
13.684,61.6987,-0.000734
13.700,61.7206,-0.000734
13.717,61.7427,-0.000734
13.733,61.7628,-0.000734
13.748,61.7833,-0.000697
13.765,61.8055,-0.000697
13.781,61.8254,-0.000697
13.796,61.8449,-0.000697
13.812,61.8650,-0.000697
13.829,61.8857,-0.000697
13.844,61.9047,-0.000697
13.860,61.9242,-0.000697
13.876,61.9441,-0.000697
13.892,61.9631,-0.000697
13.909,61.9823,-0.000697
13.924,62.0004,-0.000697
13.940,62.0190,-0.000697
13.956,62.0375,-0.000697
13.972,62.0564,-0.000697
13.988,62.0734,-0.000697
14.004,62.0913,-0.000697
14.020,62.1093,-0.000697
14.036,62.1266,-0.000697
14.052,62.1441,-0.000697
14.077,62.1707,-0.000697
14.093,62.1868,-0.000697
14.108,62.2025,-0.000697
14.124,62.2190,-0.000697
14.141,62.2360,-0.000697
14.156,62.2507,-0.000697
14.172,62.2667,-0.000697
14.188,62.2820,-0.000697
14.207,62.3006,-0.000697
14.232,62.3241,-0.000668
14.252,62.3425,-0.000668
14.269,62.3581,-0.000668
14.294,62.3807,-0.000668
14.325,62.4075,-0.000668
14.356,62.4338,-0.000668
14.388,62.4604,-0.000668
14.418,62.4844,-0.000668
14.433,62.4971,-0.000668
14.464,62.5203,-0.000668
14.494,62.5427,-0.000659
14.524,62.5646,-0.000659
14.540,62.5759,-0.000659
14.556,62.5869,-0.000659
14.572,62.5977,-0.000659
14.588,62.6088,-0.000659
14.604,62.6189,-0.000659
14.631,62.6362,-0.000659
14.647,62.6463,-0.000659
14.663,62.6563,-0.000659
14.679,62.6658,-0.000659
14.695,62.6755,-0.000659
14.711,62.6847,-0.000659
14.727,62.6936,-0.000659
14.743,62.7023,-0.000678
14.759,62.7108,-0.000678
14.775,62.7194,-0.000678
14.791,62.7276,-0.000678
14.808,62.7361,-0.000678
14.823,62.7437,-0.000678
14.839,62.7513,-0.000678
14.855,62.7591,-0.000678
14.872,62.7664,-0.000678
14.887,62.7733,-0.000678
14.903,62.7800,-0.000678
14.919,62.7869,-0.000678
14.935,62.7934,-0.000678
14.950,62.7996,-0.000678
14.967,62.8060,-0.000678
14.983,62.8119,-0.000678
14.999,62.8177,-0.000678
15.016,62.8233,-0.000734
15.032,62.8288,-0.000734
15.055,62.8364,-0.000734
15.079,62.8434,-0.000734
15.095,62.8481,-0.000734
15.111,62.8523,-0.000734
15.127,62.8566,-0.000734
15.143,62.8607,-0.000734
15.172,62.8674,-0.000734
15.188,62.8708,-0.000734
15.204,62.8742,-0.000734
15.220,62.8773,-0.000734
15.236,62.8800,-0.000734
15.252,62.8827,-0.000734
15.268,62.8853,-0.000800
15.284,62.8876,-0.000800
15.300,62.8897,-0.000800
15.316,62.8915,-0.000800
15.332,62.8933,-0.000800
15.348,62.8949,-0.000800
15.364,62.8961,-0.000800
15.380,62.8972,-0.000800
15.395,62.8982,-0.000800
15.412,62.8990,-0.000800
15.427,62.8996,-0.000800
15.444,62.9000,-0.000800
15.460,62.9001,-0.000800
15.476,62.9001,-0.000800
15.492,62.9001,-0.000800
15.509,62.9001,-0.000819
15.539,62.9001,-0.000819
15.556,62.9001,-0.000819
15.572,62.9001,-0.000819
15.588,62.9001,-0.000819
15.604,62.9001,-0.000819
15.619,62.9001,-0.000819
15.637,62.9001,-0.000819
15.664,62.9001,-0.000819
15.684,62.9001,-0.000819
15.700,62.9001,-0.000819
15.727,62.9001,-0.000819
15.743,62.9001,-0.000819
15.759,62.9001,-0.000885
15.775,62.9001,-0.000885
15.792,62.9001,-0.000885
15.818,62.9001,-0.000885
15.838,62.9001,-0.000885
15.854,62.9001,-0.000885
15.870,62.9001,-0.000885
15.886,62.9001,-0.000885
15.902,62.9001,-0.000885
15.919,62.9001,-0.000885
15.934,62.9001,-0.000885
15.951,62.9001,-0.000885
15.968,62.9001,-0.000885
15.983,62.9001,-0.000885
15.998,62.9001,-0.000951
16.014,62.9001,-0.000951
16.031,62.9001,-0.000951
16.047,62.9001,-0.000951
16.063,62.9001,-0.000951
16.080,62.9001,-0.000951
16.111,62.9001,-0.000951
16.126,62.9001,-0.000951
16.142,62.9001,-0.000951
16.160,62.9001,-0.000951
16.187,62.9001,-0.000951
16.206,62.9001,-0.000951
16.225,62.9001,-0.000951
16.249,62.9001,-0.000951
16.285,62.9001,-0.000922
16.302,62.9001,-0.000922
16.317,62.9001,-0.000922
16.334,62.9001,-0.000922
16.350,62.9001,-0.000922
16.366,62.9001,-0.000922
16.381,62.9001,-0.000922
16.397,62.9001,-0.000922
16.414,62.9001,-0.000922
16.430,62.9001,-0.000922
16.445,62.9001,-0.000922
16.462,62.9001,-0.000922
16.478,62.9001,-0.000922
16.493,62.9001,-0.000894
16.509,62.9001,-0.000894
16.525,62.9001,-0.000894
16.541,62.9001,-0.000894
16.558,62.9001,-0.000894
16.574,62.9001,-0.000894
16.589,62.9001,-0.000894
16.606,62.9001,-0.000894
16.622,62.9001,-0.000894
16.637,62.9001,-0.000894
16.654,62.9001,-0.000894
16.669,62.9001,-0.000894
16.686,62.9001,-0.000894
16.702,62.9001,-0.000894
16.719,62.9001,-0.000894
16.744,62.9001,-0.000866
16.766,62.9001,-0.000866
16.781,62.9001,-0.000866
16.798,62.9001,-0.000866
16.813,62.9001,-0.000866
16.837,62.9001,-0.000866
16.856,62.9001,-0.000866
16.872,62.9001,-0.000866
16.898,62.9001,-0.000866
16.917,62.9001,-0.000866
16.932,62.9001,-0.000866
16.948,62.9001,-0.000866
16.965,62.9001,-0.000866
16.981,62.9001,-0.000866
16.997,62.9001,-0.000875
17.012,62.9001,-0.000875
17.029,62.9001,-0.000875
17.045,62.9001,-0.000875
17.068,62.9001,-0.000875
17.099,62.9001,-0.000875
17.115,62.9001,-0.000875
17.131,62.9001,-0.000875
17.146,62.9001,-0.000875
17.162,62.9001,-0.000875
17.178,62.9001,-0.000875
17.194,62.9001,-0.000875
17.224,62.9001,-0.000875
17.254,62.9001,-0.000932
17.286,62.9001,-0.000932
17.315,62.9001,-0.000932
17.333,62.9001,-0.000932
17.348,62.9001,-0.000932
17.364,62.9001,-0.000932
17.393,62.9001,-0.000932
17.409,62.9001,-0.000932
17.425,62.9001,-0.000932
17.441,62.9001,-0.000932
17.458,62.9001,-0.000932
17.473,62.9001,-0.000932
17.489,62.9001,-0.000885
17.505,62.9001,-0.000885
17.524,62.9001,-0.000885
17.549,62.9001,-0.000885
17.569,62.9001,-0.000885
17.585,62.9001,-0.000885
17.601,62.9001,-0.000885
17.617,62.9001,-0.000885
17.633,62.9001,-0.000885
17.649,62.9001,-0.000885
17.665,62.9001,-0.000885
17.681,62.9001,-0.000885
17.697,62.9001,-0.000885
17.713,62.9001,-0.000885
17.729,62.9001,-0.000885
17.745,62.9001,-0.000904
17.761,62.9001,-0.000904
17.777,62.9001,-0.000904
17.792,62.9001,-0.000904
17.809,62.9001,-0.000904
17.825,62.9001,-0.000904
17.842,62.9001,-0.000904
17.857,62.9001,-0.000904
17.873,62.9001,-0.000904
17.896,62.9001,-0.000904
17.919,62.9001,-0.000904
17.937,62.9001,-0.000904
17.953,62.9001,-0.000904
17.969,62.9001,-0.000904
17.985,62.9001,-0.000904
18.001,62.9001,-0.000894
18.020,62.9001,-0.000894
18.042,62.9001,-0.000894
18.058,62.9001,-0.000894
18.088,62.9001,-0.000894
18.104,62.9001,-0.000894
18.120,62.9001,-0.000894
18.136,62.9001,-0.000894
18.168,62.9001,-0.000894
18.197,62.9001,-0.000894
18.212,62.9001,-0.000894
18.228,62.9001,-0.000894
18.244,62.9001,-0.000847
18.274,62.9001,-0.000847
18.292,62.9001,-0.000847
18.321,62.9001,-0.000847
18.337,62.9001,-0.000847
18.353,62.9001,-0.000847
18.369,62.9001,-0.000847
18.385,62.9001,-0.000847
18.401,62.9001,-0.000847
18.416,62.9001,-0.000847
18.444,62.9001,-0.000847
18.469,62.9001,-0.000847
18.491,62.9001,-0.000838
18.508,62.9001,-0.000838
18.524,62.9001,-0.000838
18.539,62.9001,-0.000838
18.555,62.9001,-0.000838
18.571,62.9001,-0.000838
18.587,62.9001,-0.000838
18.603,62.9001,-0.000838
18.619,62.9001,-0.000838
18.636,62.9001,-0.000838
18.652,62.9001,-0.000838
18.667,62.9001,-0.000838
18.684,62.9001,-0.000838
18.702,62.9001,-0.000838
18.723,62.9001,-0.000838
18.754,62.9001,-0.000828
18.785,62.9001,-0.000828
18.814,62.9001,-0.000828
18.846,62.9001,-0.000828
18.862,62.9001,-0.000828
18.877,62.9001,-0.000828
18.892,62.9001,-0.000828
18.908,62.9001,-0.000828
18.924,62.9001,-0.000828
18.941,62.9001,-0.000828
18.970,62.9001,-0.000828
19.001,62.9001,-0.000866
19.017,62.9001,-0.000866
19.033,62.9001,-0.000866
19.049,62.9001,-0.000866
19.068,62.9001,-0.000866
19.093,62.9001,-0.000866
19.112,62.9001,-0.000866
19.129,62.9001,-0.000866
19.144,62.9001,-0.000866
19.160,62.9001,-0.000866
19.176,62.9001,-0.000866
19.195,62.9001,-0.000866
19.211,62.9001,-0.000866
19.232,62.9001,-0.000866
19.248,62.9001,-0.000828
19.278,62.9001,-0.000828
19.309,62.9001,-0.000828
19.340,62.9001,-0.000828
19.371,62.9001,-0.000828
19.387,62.9001,-0.000828
19.417,62.9001,-0.000828
19.433,62.9001,-0.000828
19.464,62.9001,-0.000828
19.480,62.9001,-0.000828
19.496,62.9001,-0.000838
19.513,62.9001,-0.000838
19.529,62.9001,-0.000838
19.556,62.9001,-0.000838
19.571,62.9001,-0.000838
19.588,62.9001,-0.000838
19.604,62.9001,-0.000838
19.620,62.9001,-0.000838
19.636,62.9001,-0.000838
19.652,62.9001,-0.000838
19.667,62.9001,-0.000838
19.685,62.9001,-0.000838
19.712,62.9001,-0.000838
19.731,62.9001,-0.000838
19.748,62.9001,-0.000838
19.764,62.9001,-0.000838
19.779,62.9001,-0.000838
19.795,62.9001,-0.000838
19.812,62.9001,-0.000838
19.827,62.9001,-0.000838
19.843,62.9001,-0.000838
19.860,62.9001,-0.000838
19.875,62.9001,-0.000838
19.891,62.9001,-0.000838
19.907,62.9001,-0.000838
19.924,62.9001,-0.000838
19.939,62.9001,-0.000838
19.955,62.9001,-0.000838
19.972,62.9001,-0.000838
19.987,62.9001,-0.000838
20.003,62.9001,-0.000810
20.019,62.9001,-0.000810
20.035,62.9001,-0.000810
20.051,62.9001,-0.000810
20.067,62.9001,-0.000810
20.097,62.9001,-0.000810
20.114,62.9001,-0.000810
20.146,62.9001,-0.000810
20.162,62.9001,-0.000810
20.191,62.9001,-0.000810
20.208,62.9001,-0.000810
20.225,62.9001,-0.000810
20.240,62.9001,-0.000810
20.256,62.9001,-0.000847
20.272,62.9001,-0.000847
20.288,62.9001,-0.000847
20.304,62.9001,-0.000847
20.320,62.9001,-0.000847
20.336,62.9001,-0.000847
20.352,62.9001,-0.000847
20.368,62.9001,-0.000847
20.384,62.9001,-0.000847
20.400,62.9001,-0.000847
20.417,62.9001,-0.000847
20.438,62.9001,-0.000847
20.469,62.9001,-0.000847
20.485,62.9001,-0.000847
20.500,62.9001,-0.000847
20.531,62.9001,-0.000885
20.548,62.9001,-0.000885
20.578,62.9001,-0.000885
20.609,62.9001,-0.000885
20.625,62.9001,-0.000885
20.655,62.9001,-0.000885
20.671,62.9001,-0.000885
20.687,62.9001,-0.000885
20.703,62.9001,-0.000885
20.720,62.9001,-0.000885
20.750,62.9001,-0.000838
20.767,62.9001,-0.000838
20.783,62.9001,-0.000838
20.799,62.9001,-0.000838
20.815,62.9001,-0.000838
20.831,62.9001,-0.000838
20.847,62.9000,-0.000838
20.863,62.8997,-0.000838
20.879,62.8992,-0.000838
20.895,62.8985,-0.000838
20.911,62.8976,-0.000838
20.927,62.8965,-0.000838
20.943,62.8953,-0.000838
20.959,62.8939,-0.000838
20.981,62.8914,-0.000838
21.010,62.8878,-0.000819
21.026,62.8856,-0.000819
21.057,62.8806,-0.000819
21.073,62.8779,-0.000819
21.105,62.8712,-0.000819
21.134,62.8651,-0.000819
21.151,62.8612,-0.000819
21.167,62.8572,-0.000819
21.183,62.8531,-0.000819
21.209,62.8458,-0.000819
21.225,62.8412,-0.000819
21.241,62.8364,0.000480
21.257,62.8314,0.000480
21.273,62.8258,0.000480
21.289,62.8206,0.000480
21.305,62.8150,0.000480
21.321,62.8092,0.000480
21.337,62.8030,0.000480
21.353,62.7969,0.000480
21.369,62.7902,0.000480
21.385,62.7839,0.000480
21.401,62.7768,0.000480
21.416,62.7700,0.000480
21.433,62.7627,0.000480
21.449,62.7550,0.000480
21.466,62.7474,0.000480
21.481,62.7399,0.000480
21.497,62.7319,0.005158
21.513,62.7240,0.005158
21.529,62.7153,0.005158
21.545,62.7066,0.005158
21.561,62.6983,0.005158
21.577,62.6894,0.005158
21.593,62.6798,0.005158
21.609,62.6709,0.005158
21.625,62.6614,0.005158
21.641,62.6514,0.005158
21.657,62.6413,0.005158
21.673,62.6312,0.005158
21.689,62.6209,0.005158
21.705,62.6103,0.005158
21.721,62.5997,0.005158
21.737,62.5887,0.005158
21.767,62.5675,0.013847
21.784,62.5559,0.013847
21.800,62.5444,0.013847
21.816,62.5325,0.013847
21.832,62.5201,0.013847
21.860,62.4988,0.013847
21.879,62.4836,0.013847
21.895,62.4705,0.013847
21.911,62.4578,0.013847
21.928,62.4441,0.013847
21.944,62.4303,0.013847
21.960,62.4169,0.013847
21.976,62.4034,0.013847
21.992,62.3897,0.027289
22.007,62.3756,0.027289
22.024,62.3610,0.027289
22.039,62.3470,0.027289
22.055,62.3319,0.027289
22.072,62.3168,0.027289
22.088,62.3013,0.027289
22.103,62.2867,0.027289
22.120,62.2709,0.027289
22.135,62.2554,0.027289
22.151,62.2395,0.027289
22.168,62.2234,0.027289
22.184,62.2069,0.027289
22.199,62.1908,0.027289
22.215,62.1741,0.027289
22.232,62.1568,0.046125
22.248,62.1395,0.046125
22.269,62.1160,0.046125
22.294,62.0884,0.046125
22.312,62.0693,0.046125
22.340,62.0375,0.046125
22.359,62.0158,0.046125
22.387,61.9827,0.046125
22.406,61.9602,0.046125
22.421,61.9423,0.046125
22.438,61.9224,0.046125
22.453,61.9033,0.046125
22.471,61.8812,0.046125
22.497,61.8484,0.071126
22.517,61.8230,0.071126
22.533,61.8025,0.071126
22.549,61.7819,0.071126
22.565,61.7608,0.071126
22.581,61.7395,0.071126
22.599,61.7156,0.071126
22.614,61.6960,0.071126
22.637,61.6647,0.071126
22.667,61.6219,0.071126
22.698,61.5791,0.071126
22.729,61.5347,0.071126
22.745,61.5129,0.071126
22.760,61.4901,0.042378
22.776,61.4679,0.042378
22.792,61.4423,0.042378
22.807,61.4212,0.042378
22.836,61.3765,0.042378
22.853,61.3518,0.042378
22.869,61.3267,0.042378
22.885,61.3021,0.042378
22.901,61.2769,0.042378
22.917,61.2520,0.042378
22.934,61.2262,0.042378
22.949,61.2005,0.042378
22.966,61.1738,0.042378
22.981,61.1485,0.042378
22.998,61.1227,-0.000593
23.013,61.0972,-0.000593
23.030,61.0678,-0.000593
23.046,61.0426,-0.000593
23.061,61.0169,-0.000593
23.077,60.9899,-0.000593
23.093,60.9612,-0.000593
23.109,60.9347,-0.000593
23.125,60.9065,-0.000593
23.141,60.8793,-0.000593
23.157,60.8501,-0.000593
23.173,60.8230,-0.000593
23.189,60.7938,-0.000593
23.205,60.7653,-0.000593
23.221,60.7356,-0.000593
23.237,60.7075,-0.000640
23.253,60.6787,-0.000640
23.270,60.6468,-0.000640
23.285,60.6184,-0.000640
23.301,60.5902,-0.000640
23.317,60.5590,-0.000640
23.333,60.5289,-0.000640
23.349,60.4985,-0.000640
23.365,60.4675,-0.000640
23.390,60.4191,-0.000640
23.406,60.3894,-0.000640
23.422,60.3571,-0.000640
23.438,60.3260,-0.000640
23.454,60.2940,-0.000640
23.470,60.2632,-0.000640
23.486,60.2297,-0.000697
23.501,60.1991,-0.000697
23.519,60.1643,-0.000697
23.534,60.1339,-0.000697
23.550,60.1001,-0.000697
23.566,60.0680,-0.000697
23.583,60.0327,-0.000697
23.607,59.9800,-0.000697
23.630,59.9332,-0.000697
23.647,59.8967,-0.000697
23.670,59.8474,-0.000697
23.685,59.8158,-0.000697
23.702,59.7792,-0.000697
23.732,59.7163,-0.000697
23.764,59.6509,-0.000687
23.794,59.5890,-0.000687
23.810,59.5585,-0.000687
23.825,59.5269,-0.000687
23.856,59.4630,-0.000687
23.887,59.4035,-0.000687
23.918,59.3420,-0.000687
23.947,59.2862,-0.000687
23.964,59.2534,-0.000687
23.979,59.2257,-0.000687
23.995,59.1956,-0.000753
24.011,59.1651,-0.000753
24.027,59.1347,-0.000753
24.043,59.1070,-0.000753
24.059,59.0763,-0.000753
24.075,59.0473,-0.000753
24.091,59.0185,-0.000753
24.108,58.9883,-0.000753
24.129,58.9504,-0.000753
24.153,58.9060,-0.000753
24.171,58.8759,-0.000753
24.187,58.8487,-0.000753
24.203,58.8199,-0.000753
24.219,58.7936,-0.000753
24.235,58.7652,-0.000753
24.253,58.7353,-0.000753
24.274,58.6998,-0.000753
24.289,58.6735,-0.000744
24.320,58.6222,-0.000744
24.335,58.5980,-0.000744
24.365,58.5496,-0.000744
24.381,58.5249,-0.000744
24.397,58.4999,-0.000744
24.427,58.4511,-0.000744
24.443,58.4282,-0.000744
24.459,58.4030,-0.000744
24.475,58.3792,-0.000744
24.491,58.3548,-0.000744
24.507,58.3302,-0.000744
24.523,58.3066,-0.000621
24.538,58.2836,-0.000621
24.557,58.2554,-0.000621
24.583,58.2185,-0.000621
24.603,58.1892,-0.000621
24.619,58.1672,-0.000621
24.635,58.1445,-0.000621
24.650,58.1233,-0.000621
24.667,58.1010,-0.000621
24.683,58.0782,-0.000621
24.699,58.0567,-0.000621
24.714,58.0361,-0.000621
24.731,58.0141,-0.000621
24.748,57.9910,-0.000621
24.768,57.9643,-0.000631
24.784,57.9452,-0.000631
24.814,57.9057,-0.000631
24.845,57.8670,-0.000631
24.862,57.8455,-0.000631
24.892,57.8089,-0.000631
24.923,57.7736,-0.000631
24.939,57.7539,-0.000631
24.954,57.7365,-0.000631
24.970,57.7178,-0.000631
24.986,57.6994,-0.000631
25.003,57.6811,-0.000631
25.019,57.6630,-0.000631
25.046,57.6323,-0.000612
25.063,57.6151,-0.000612
25.078,57.5985,-0.000612
25.094,57.5812,-0.000612
25.111,57.5639,-0.000612
25.127,57.5476,-0.000612
25.155,57.5186,-0.000612
25.181,57.4934,-0.000612
25.205,57.4700,-0.000612
25.223,57.4527,-0.000612
25.238,57.4381,-0.000612
25.254,57.4230,-0.000612
25.270,57.4076,-0.000584
25.286,57.3933,-0.000584
25.303,57.3789,-0.000584
25.318,57.3644,-0.000584
25.334,57.3510,-0.000584
25.350,57.3372,-0.000584
25.367,57.3231,-0.000584
25.383,57.3092,-0.000584
25.398,57.2968,-0.000584
25.414,57.2838,-0.000584
25.431,57.2703,-0.000584
25.447,57.2579,-0.000584
25.463,57.2455,-0.000584
25.478,57.2332,-0.000584
25.495,57.2209,-0.000584
25.510,57.2095,-0.000518
25.527,57.1970,-0.000518
25.542,57.1862,-0.000518
25.558,57.1751,-0.000518
25.575,57.1634,-0.000518
25.605,57.1423,-0.000518
25.621,57.1319,-0.000518
25.638,57.1217,-0.000518
25.653,57.1117,-0.000518
25.670,57.1016,-0.000518
25.685,57.0921,-0.000518
25.701,57.0824,-0.000518
25.717,57.0729,-0.000518
25.733,57.0636,-0.000518
25.749,57.0545,-0.000518
25.765,57.0461,-0.000452
25.781,57.0375,-0.000452
25.798,57.0286,-0.000452
25.823,57.0154,-0.000452
25.845,57.0045,-0.000452
25.862,56.9971,-0.000452
25.877,56.9898,-0.000452
25.893,56.9826,-0.000452
25.909,56.9755,-0.000452
25.925,56.9684,-0.000452
25.941,56.9620,-0.000452
25.957,56.9555,-0.000452
25.974,56.9486,-0.000452
25.993,56.9414,-0.000452
26.023,56.9307,-0.000414
26.053,56.9204,-0.000414
26.070,56.9153,-0.000414
26.085,56.9105,-0.000414
26.102,56.9055,-0.000414
26.130,56.8976,-0.000414
26.149,56.8928,-0.000414
26.165,56.8888,-0.000414
26.181,56.8848,-0.000414
26.197,56.8814,-0.000414
26.213,56.8779,-0.000414
26.229,56.8749,-0.000414
26.246,56.8717,-0.000311
26.262,56.8690,-0.000311
26.277,56.8664,-0.000311
26.293,56.8640,-0.000311
26.309,56.8618,-0.000311
26.325,56.8598,-0.000311
26.341,56.8579,-0.000311
26.357,56.8563,-0.000311
26.373,56.8548,-0.000311
26.389,56.8536,-0.000311
26.405,56.8525,-0.000311
26.421,56.8516,-0.000311
26.437,56.8510,-0.000311
26.453,56.8505,-0.000311
26.469,56.8502,-0.000311
26.485,56.8501,-0.000292
26.500,56.8501,-0.000292
26.520,56.8501,-0.000292
26.547,56.8501,-0.000292
26.565,56.8501,-0.000292
26.581,56.8501,-0.000292
26.597,56.8501,-0.000292
26.613,56.8501,-0.000292
26.629,56.8501,-0.000292
26.645,56.8501,-0.000292
26.661,56.8501,-0.000292
26.677,56.8501,-0.000292
26.701,56.8501,-0.000292
26.717,56.8501,-0.000292
26.733,56.8504,-0.000235
26.749,56.8509,-0.000235
26.767,56.8516,-0.000235
26.794,56.8531,-0.000235
26.813,56.8545,-0.000235
26.830,56.8561,-0.000235
26.855,56.8587,-0.000235
26.885,56.8624,-0.000235
26.916,56.8669,-0.000235
26.932,56.8697,-0.000235
26.962,56.8752,-0.000235
26.992,56.8815,-0.000292
27.022,56.8881,-0.000292
27.052,56.8958,-0.000292
27.070,56.9005,-0.000292
27.099,56.9088,-0.000292
27.117,56.9142,-0.000292
27.133,56.9193,-0.000292
27.149,56.9246,-0.000292
27.164,56.9300,-0.000292
27.180,56.9357,-0.000292
27.197,56.9416,-0.000292
27.212,56.9476,-0.000292
27.228,56.9538,-0.000292
27.253,56.9637,-0.000395
27.269,56.9707,-0.000395
27.285,56.9774,-0.000395
27.301,56.9843,-0.000395
27.323,56.9951,-0.000395
27.346,57.0061,-0.000395
27.365,57.0147,-0.000395
27.381,57.0231,-0.000395
27.397,57.0311,-0.000395
27.413,57.0397,-0.000395
27.429,57.0482,-0.000395
27.444,57.0571,-0.000395
27.460,57.0660,-0.000395
27.477,57.0757,-0.000395
27.492,57.0846,-0.000358
27.508,57.0944,-0.000358
27.525,57.1047,-0.000358
27.541,57.1144,-0.000358
27.557,57.1249,-0.000358
27.572,57.1347,-0.000358
27.589,57.1457,-0.000358
27.605,57.1564,-0.000358
27.621,57.1676,-0.000358
27.636,57.1784,-0.000358
27.652,57.1897,-0.000358
27.669,57.2015,-0.000358
27.684,57.2133,-0.000358
27.701,57.2257,-0.000358
27.716,57.2372,-0.000358
27.735,57.2528,-0.000358
27.764,57.2750,-0.000358
27.795,57.2996,-0.000367
27.810,57.3130,-0.000367
27.826,57.3262,-0.000367
27.842,57.3398,-0.000367
27.859,57.3536,-0.000367
27.875,57.3679,-0.000367
27.890,57.3817,-0.000367
27.907,57.3977,-0.000367
27.924,57.4127,-0.000367
27.950,57.4367,-0.000367
27.970,57.4560,-0.000367
27.986,57.4720,-0.000367
28.003,57.4873,-0.000367
28.018,57.5027,-0.000442
28.034,57.5190,-0.000442
28.051,57.5355,-0.000442
28.067,57.5523,-0.000442
28.082,57.5678,-0.000442
28.099,57.5861,-0.000442
28.122,57.6098,-0.000442
28.149,57.6400,-0.000442
28.165,57.6564,-0.000442
28.195,57.6905,-0.000442
28.210,57.7079,-0.000442
28.227,57.7271,-0.000442
28.242,57.7444,-0.000442
28.259,57.7635,-0.000508
28.274,57.7818,-0.000508
28.291,57.8015,-0.000508
28.306,57.8203,-0.000508
28.323,57.8403,-0.000508
28.346,57.8706,-0.000508
28.362,57.8900,-0.000508
28.378,57.9095,-0.000508
28.394,57.9297,-0.000508
28.418,57.9614,-0.000508
28.441,57.9915,-0.000508
28.458,58.0132,-0.000508
28.474,58.0350,-0.000508
28.490,58.0569,-0.000508
28.507,58.0787,-0.000546
28.522,58.0998,-0.000546
28.539,58.1225,-0.000546
28.554,58.1443,-0.000546
28.570,58.1671,-0.000546
28.586,58.1892,-0.000546
28.603,58.2140,-0.000546
28.627,58.2484,-0.000546
28.643,58.2707,-0.000546
28.674,58.3169,-0.000546
28.704,58.3626,-0.000546
28.734,58.4090,-0.000546
28.766,58.4571,-0.000574
28.796,58.5062,-0.000574
28.812,58.5303,-0.000574
28.843,58.5806,-0.000574
28.873,58.6289,-0.000574
28.889,58.6561,-0.000574
28.905,58.6821,-0.000574
28.921,58.7093,-0.000574
28.937,58.7356,-0.000574
28.953,58.7627,-0.000574
28.970,58.7926,-0.000574
28.985,58.8182,-0.000574
29.001,58.8460,-0.000650
29.017,58.8732,-0.000650
29.033,58.9016,-0.000650
29.049,58.9297,-0.000650
29.065,58.9580,-0.000650
29.082,58.9885,-0.000650
29.106,59.0324,-0.000650
29.122,59.0602,-0.000650
29.137,59.0896,-0.000650
29.167,59.1459,-0.000650
29.198,59.2037,-0.000650
29.230,59.2635,-0.000650
29.260,59.3212,-0.000706
29.291,59.3812,-0.000706
29.321,59.4398,-0.000706
29.339,59.4766,-0.000706
29.367,59.5327,-0.000706
29.398,59.5954,-0.000706
29.415,59.6295,-0.000706
29.445,59.6914,-0.000706
29.468,59.7404,-0.000706
29.491,59.7882,-0.000706
29.510,59.8278,-0.000791
29.526,59.8635,-0.000791
29.542,59.8960,-0.000791
29.558,59.9304,-0.000791
29.575,59.9645,-0.000791
29.591,59.9982,-0.000791
29.606,60.0303,-0.000791
29.622,60.0617,-0.000791
29.638,60.0957,-0.000791
29.655,60.1300,-0.000791
29.675,60.1710,-0.000791
29.706,60.2326,-0.000791
29.737,60.2940,-0.000772
29.767,60.3534,-0.000772
29.799,60.4140,-0.000772
29.814,60.4433,-0.000772
29.831,60.4761,-0.000772
29.861,60.5321,-0.000772
29.878,60.5637,-0.000772
29.894,60.5928,-0.000772
29.910,60.6233,-0.000772
29.926,60.6513,-0.000772
29.953,60.7014,-0.000772
29.969,60.7299,-0.000772
29.985,60.7588,-0.000715
30.001,60.7860,-0.000715
30.024,60.8279,-0.000715
30.047,60.8672,-0.000715
30.065,60.8976,-0.000715
30.080,60.9251,-0.000715
30.097,60.9534,-0.000715
30.114,60.9811,-0.000715
30.139,61.0249,-0.000715
30.163,61.0639,-0.000715
30.185,61.1003,-0.000715
30.216,61.1499,-0.000715
30.232,61.1752,-0.000715
30.248,61.1994,-0.000734
30.278,61.2481,-0.000734
30.293,61.2717,-0.000734
30.309,61.2949,-0.000734
30.339,61.3421,-0.000734
30.371,61.3884,-0.000734
30.400,61.4334,-0.000734
30.416,61.4558,-0.000734
30.432,61.4789,-0.000734
30.448,61.5020,-0.000734
30.464,61.5247,-0.000734
30.480,61.5470,-0.000734
30.506,61.5833,-0.000715
30.523,61.6055,-0.000715
30.538,61.6269,-0.000715
30.553,61.6476,-0.000715
30.570,61.6705,-0.000715
30.585,61.6905,-0.000715
30.602,61.7127,-0.000715
30.617,61.7323,-0.000715
30.635,61.7557,-0.000715
30.665,61.7936,-0.000715
30.681,61.8141,-0.000715
30.697,61.8344,-0.000715
30.714,61.8543,-0.000715
30.729,61.8733,-0.000687
30.745,61.8924,-0.000687
30.762,61.9132,-0.000687
30.778,61.9316,-0.000687
30.793,61.9497,-0.000687
30.809,61.9682,-0.000687
30.825,61.9869,-0.000687
30.842,62.0055,-0.000687
30.857,62.0226,-0.000687
30.873,62.0405,-0.000687
30.889,62.0584,-0.000687
30.906,62.0758,-0.000687
30.921,62.0926,-0.000687
30.938,62.1107,-0.000687
30.954,62.1271,-0.000687
30.970,62.1441,-0.000687
30.988,62.1630,-0.000593
31.020,62.1949,-0.000593
31.035,62.2095,-0.000593
31.063,62.2372,-0.000593
31.080,62.2527,-0.000593
31.095,62.2678,-0.000593
31.112,62.2836,-0.000593
31.128,62.2982,-0.000593
31.157,62.3246,-0.000593
31.175,62.3405,-0.000593
31.193,62.3559,-0.000593
31.208,62.3684,-0.000593
31.223,62.3817,-0.000593
31.239,62.3948,-0.000574
31.255,62.4081,-0.000574
31.272,62.4214,-0.000574
31.287,62.4341,-0.000574
31.304,62.4469,-0.000574
31.319,62.4588,-0.000574
31.335,62.4710,-0.000574
31.351,62.4831,-0.000574
31.368,62.4958,-0.000574
31.383,62.5064,-0.000574
31.399,62.5181,-0.000574
31.415,62.5291,-0.000574
31.431,62.5404,-0.000574
31.447,62.5511,-0.000574
31.464,62.5620,-0.000574
31.480,62.5729,-0.000574
31.499,62.5851,-0.000574
31.515,62.5952,-0.000659
31.545,62.6137,-0.000659
31.562,62.6232,-0.000659
31.592,62.6410,-0.000659
31.616,62.6542,-0.000659
31.632,62.6626,-0.000659
31.648,62.6712,-0.000659
31.664,62.6793,-0.000659
31.680,62.6875,-0.000659
31.696,62.6952,-0.000659
31.712,62.7030,-0.000659
31.728,62.7105,-0.000659
31.744,62.7175,-0.000659
31.760,62.7245,-0.000753
31.776,62.7317,-0.000753
31.793,62.7386,-0.000753
31.808,62.7447,-0.000753
31.824,62.7511,-0.000753
31.840,62.7571,-0.000753
31.859,62.7645,-0.000753
31.886,62.7735,-0.000753
31.904,62.7797,-0.000753
31.921,62.7851,-0.000753
31.949,62.7934,-0.000753
31.968,62.7989,-0.000753
31.986,62.8037,-0.000753
32.011,62.8103,-0.000772
32.032,62.8153,-0.000772
32.048,62.8189,-0.000772
32.064,62.8222,-0.000772
32.080,62.8253,-0.000772
32.096,62.8284,-0.000772
32.112,62.8311,-0.000772
32.128,62.8339,-0.000772
32.144,62.8362,-0.000772
32.167,62.8393,-0.000772
32.183,62.8413,-0.000772
32.199,62.8430,-0.000772
32.215,62.8447,-0.000772
32.231,62.8460,-0.000772
32.247,62.8471,-0.000772
32.263,62.8481,-0.000791
32.280,62.8490,-0.000791
32.297,62.8495,-0.000791
32.322,62.8500,-0.000791
32.352,62.8501,-0.000791
32.368,62.8501,-0.000791
32.398,62.8501,-0.000791
32.414,62.8501,-0.000791
32.430,62.8501,-0.000791
32.445,62.8501,-0.000791
32.461,62.8501,-0.000791
32.492,62.8501,-0.000791
32.523,62.8501,-0.000838
32.553,62.8501,-0.000838
32.584,62.8501,-0.000838
32.599,62.8501,-0.000838
32.615,62.8501,-0.000838
32.631,62.8501,-0.000838
32.648,62.8501,-0.000838
32.663,62.8501,-0.000838
32.679,62.8501,-0.000838
32.695,62.8501,-0.000838
32.721,62.8501,-0.000838
32.737,62.8501,-0.000838
32.753,62.8501,-0.000838
32.768,62.8501,-0.000838
32.786,62.8501,-0.000838
32.801,62.8501,-0.000838
32.817,62.8501,-0.000838
32.833,62.8501,-0.000838
32.849,62.8501,-0.000838
32.865,62.8501,-0.000838
32.881,62.8501,-0.000838
32.898,62.8501,-0.000838
32.913,62.8501,-0.000838
32.929,62.8501,-0.000838
32.945,62.8501,-0.000838
32.961,62.8501,-0.000838
32.977,62.8501,-0.000838
32.993,62.8501,-0.000847
33.009,62.8501,-0.000847
33.025,62.8501,-0.000847
33.041,62.8501,-0.000847
33.056,62.8501,-0.000847
33.073,62.8501,-0.000847
33.088,62.8501,-0.000847
33.105,62.8501,-0.000847
33.121,62.8501,-0.000847
33.137,62.8501,-0.000847
33.155,62.8501,-0.000847
33.184,62.8501,-0.000847
33.201,62.8501,-0.000847
33.217,62.8501,-0.000847
33.233,62.8501,-0.000847
33.248,62.8501,-0.000847
33.275,62.8501,-0.000847
33.292,62.8501,-0.000847
33.307,62.8501,-0.000847
33.323,62.8501,-0.000847
33.340,62.8501,-0.000847
33.370,62.8501,-0.000847
33.387,62.8501,-0.000847
33.402,62.8501,-0.000847
33.418,62.8501,-0.000847
33.434,62.8501,-0.000847
33.450,62.8501,-0.000847
33.467,62.8501,-0.000847
33.482,62.8501,-0.000847
33.499,62.8501,-0.000810
33.514,62.8501,-0.000810
33.531,62.8501,-0.000810
33.546,62.8501,-0.000810
33.562,62.8501,-0.000810
33.579,62.8501,-0.000810
33.595,62.8501,-0.000810
33.612,62.8501,-0.000810
33.635,62.8501,-0.000810
33.651,62.8501,-0.000810
33.682,62.8501,-0.000810
33.698,62.8501,-0.000810
33.714,62.8501,-0.000810
33.745,62.8501,-0.000810
33.760,62.8501,-0.000772
33.777,62.8501,-0.000772
33.801,62.8501,-0.000772
33.818,62.8501,-0.000772
33.834,62.8501,-0.000772
33.849,62.8501,-0.000772
33.865,62.8501,-0.000772
33.881,62.8501,-0.000772
33.897,62.8501,-0.000772
33.913,62.8501,-0.000772
33.930,62.8501,-0.000772
33.946,62.8501,-0.000772
33.962,62.8501,-0.000772
33.978,62.8501,-0.000772
34.006,62.8501,-0.000819
34.027,62.8501,-0.000819
34.053,62.8501,-0.000819
34.073,62.8501,-0.000819
34.090,62.8501,-0.000819
34.105,62.8501,-0.000819
34.121,62.8501,-0.000819
34.137,62.8501,-0.000819
34.154,62.8501,-0.000819
34.170,62.8501,-0.000819
34.185,62.8501,-0.000819
34.201,62.8501,-0.000819
34.217,62.8501,-0.000819
34.233,62.8501,-0.000866
34.249,62.8501,-0.000866
34.265,62.8501,-0.000866
34.281,62.8501,-0.000866
34.297,62.8501,-0.000866
34.314,62.8501,-0.000866
34.329,62.8501,-0.000866
34.346,62.8501,-0.000866
34.361,62.8501,-0.000866
34.377,62.8501,-0.000866
34.393,62.8501,-0.000866
34.409,62.8501,-0.000866
34.426,62.8501,-0.000866
34.441,62.8501,-0.000866
34.458,62.8501,-0.000866
34.473,62.8501,-0.000866
34.489,62.8501,-0.000857
34.505,62.8501,-0.000857
34.527,62.8501,-0.000857
34.550,62.8501,-0.000857
34.569,62.8501,-0.000857
34.586,62.8501,-0.000857
34.601,62.8501,-0.000857
34.617,62.8501,-0.000857
34.633,62.8501,-0.000857
34.650,62.8501,-0.000857
34.665,62.8501,-0.000857
34.681,62.8501,-0.000857
34.698,62.8501,-0.000857
34.714,62.8501,-0.000857
34.732,62.8501,-0.000857
34.750,62.8501,-0.000857
34.766,62.8501,-0.000819
34.781,62.8501,-0.000819
34.812,62.8501,-0.000819
34.844,62.8501,-0.000819
34.859,62.8501,-0.000819
34.875,62.8501,-0.000819
34.891,62.8501,-0.000819
34.922,62.8501,-0.000819
34.953,62.8501,-0.000819
34.969,62.8501,-0.000819
34.985,62.8501,-0.000810
35.001,62.8501,-0.000810
35.017,62.8501,-0.000810
35.033,62.8501,-0.000810
35.050,62.8501,-0.000810
35.078,62.8501,-0.000810
35.097,62.8501,-0.000810
35.113,62.8501,-0.000810
35.129,62.8501,-0.000810
35.145,62.8501,-0.000810
35.161,62.8501,-0.000810
35.179,62.8501,-0.000810
35.202,62.8501,-0.000810
35.232,62.8501,-0.000810
35.248,62.8501,-0.000810
35.264,62.8501,-0.000810
35.279,62.8501,-0.000791
35.310,62.8501,-0.000791
35.340,62.8501,-0.000791
35.371,62.8501,-0.000791
35.401,62.8501,-0.000791
35.417,62.8501,-0.000791
35.434,62.8501,-0.000791
35.463,62.8501,-0.000791
35.481,62.8501,-0.000791
35.503,62.8501,-0.000791
35.526,62.8501,-0.000791
35.545,62.8501,-0.000810
35.561,62.8501,-0.000810
35.577,62.8501,-0.000810
35.593,62.8501,-0.000810
35.608,62.8501,-0.000810
35.625,62.8501,-0.000810
35.640,62.8501,-0.000810
35.657,62.8501,-0.000810
35.673,62.8501,-0.000810
35.689,62.8501,-0.000810
35.705,62.8501,-0.000810
35.721,62.8501,-0.000810
35.737,62.8501,-0.000810
35.753,62.8501,-0.000810
35.769,62.8501,-0.000828
35.785,62.8501,-0.000828
35.801,62.8501,-0.000828
35.817,62.8501,-0.000828
35.832,62.8501,-0.000828
35.849,62.8501,-0.000828
35.864,62.8501,-0.000828
35.881,62.8501,-0.000828
35.897,62.8501,-0.000828
35.929,62.8501,-0.000828
35.951,62.8501,-0.000828
35.976,62.8501,-0.000828
35.992,62.8501,-0.000828
36.008,62.8501,-0.000828
36.023,62.8501,-0.000781
36.040,62.8501,-0.000781
36.056,62.8501,-0.000781
36.072,62.8501,-0.000781
36.088,62.8501,-0.000781
36.104,62.8501,-0.000781
36.120,62.8501,-0.000781
36.136,62.8501,-0.000781
36.151,62.8501,-0.000781
36.168,62.8501,-0.000781
36.184,62.8501,-0.000781
36.200,62.8501,-0.000781
36.215,62.8501,-0.000781
36.232,62.8501,-0.000781
36.248,62.8501,-0.000781
36.264,62.8501,-0.000857
36.279,62.8501,-0.000857
36.295,62.8501,-0.000857
36.311,62.8501,-0.000857
36.327,62.8501,-0.000857
36.344,62.8501,-0.000857
36.359,62.8501,-0.000857
36.375,62.8501,-0.000857
36.391,62.8501,-0.000857
36.408,62.8501,-0.000857
36.424,62.8501,-0.000857
36.440,62.8501,-0.000857
36.455,62.8501,-0.000857
36.483,62.8501,-0.000857
36.500,62.8501,-0.000857
36.515,62.8501,-0.000932
36.531,62.8501,-0.000932
36.548,62.8501,-0.000932
36.576,62.8501,-0.000932
36.595,62.8501,-0.000932
36.612,62.8501,-0.000932
36.628,62.8501,-0.000932
36.643,62.8501,-0.000932
36.659,62.8501,-0.000932
36.676,62.8501,-0.000932
36.691,62.8501,-0.000932
36.707,62.8501,-0.000932
36.723,62.8501,-0.000932
36.740,62.8501,-0.000932
36.755,62.8501,-0.000904
36.771,62.8501,-0.000904
36.787,62.8501,-0.000904
36.803,62.8501,-0.000904
36.819,62.8501,-0.000904
36.835,62.8501,-0.000904
36.851,62.8501,-0.000904
36.867,62.8501,-0.000904
36.884,62.8501,-0.000904
36.899,62.8501,-0.000904
36.917,62.8501,-0.000904
36.946,62.8501,-0.000904
36.963,62.8501,-0.000904
36.979,62.8501,-0.000904
36.995,62.8501,-0.000904
37.012,62.8501,-0.000904
37.036,62.8501,-0.000875
37.052,62.8501,-0.000875
37.068,62.8501,-0.000875
37.084,62.8501,-0.000875
37.102,62.8501,-0.000875
37.132,62.8501,-0.000875
37.148,62.8501,-0.000875
37.165,62.8501,-0.000875
37.180,62.8501,-0.000875
37.196,62.8501,-0.000875
37.212,62.8501,-0.000875
37.228,62.8501,-0.000875
37.244,62.8501,-0.000875
37.260,62.8501,-0.000828
37.276,62.8501,-0.000828
37.292,62.8501,-0.000828
37.309,62.8501,-0.000828
37.324,62.8501,-0.000828
37.340,62.8501,-0.000828
37.356,62.8501,-0.000828
37.373,62.8501,-0.000828
37.388,62.8501,-0.000828
37.404,62.8501,-0.000828
37.420,62.8501,-0.000828
37.436,62.8501,-0.000828
37.452,62.8501,-0.000828
37.468,62.8501,-0.000828
37.484,62.8501,-0.000828
37.500,62.8501,-0.000875
37.516,62.8501,-0.000875
37.532,62.8501,-0.000875
37.558,62.8501,-0.000875
37.573,62.8501,-0.000875
37.589,62.8501,-0.000875
37.605,62.8501,-0.000875
37.621,62.8501,-0.000875
37.637,62.8501,-0.000875
37.653,62.8501,-0.000875
37.670,62.8499,-0.000875
37.689,62.8494,-0.000875
37.719,62.8480,-0.000875
37.750,62.8459,-0.000894
37.781,62.8432,-0.000894
37.797,62.8413,-0.000894
37.813,62.8395,-0.000894
37.829,62.8373,-0.000894
37.845,62.8349,-0.000894
37.861,62.8324,-0.000894
37.877,62.8299,-0.000894
37.894,62.8267,-0.000894
37.920,62.8216,-0.000894
37.941,62.8169,-0.000894
37.957,62.8134,-0.000894
37.974,62.8093,-0.000894
37.990,62.8051,-0.000894
38.006,62.8010,-0.000056
38.021,62.7968,-0.000056
38.037,62.7920,-0.000056
38.053,62.7871,-0.000056
38.069,62.7819,-0.000056
38.093,62.7741,-0.000056
38.109,62.7688,-0.000056
38.124,62.7634,-0.000056
38.140,62.7577,-0.000056
38.156,62.7511,-0.000056
38.172,62.7453,-0.000056
38.188,62.7387,-0.000056
38.204,62.7318,-0.000056
38.220,62.7252,-0.000056
38.236,62.7182,-0.000056
38.252,62.7110,0.003624
38.268,62.7035,0.003624
38.284,62.6955,0.003624
38.299,62.6881,0.003624
38.316,62.6798,0.003624
38.332,62.6719,0.003624
38.348,62.6632,0.003624
38.364,62.6547,0.003624
38.380,62.6459,0.003624
38.396,62.6368,0.003624
38.412,62.6277,0.003624
38.427,62.6186,0.003624
38.444,62.6088,0.003624
38.460,62.5990,0.003624
38.476,62.5892,0.003624
38.492,62.5786,0.011305
38.508,62.5685,0.011305
38.523,62.5580,0.011305
38.540,62.5470,0.011305
38.556,62.5362,0.011305
38.572,62.5252,0.011305
38.588,62.5139,0.011305
38.604,62.5022,0.011305
38.619,62.4908,0.011305
38.646,62.4707,0.011305
38.663,62.4582,0.011305
38.678,62.4462,0.011305
38.694,62.4336,0.011305
38.713,62.4184,0.011305
38.741,62.3952,0.011305
38.760,62.3793,0.011305
38.787,62.3560,0.011305
38.806,62.3398,0.011305
38.822,62.3256,0.023429
38.839,62.3107,0.023429
38.854,62.2966,0.023429
38.871,62.2816,0.023429
38.887,62.2665,0.023429
38.902,62.2521,0.023429
38.919,62.2363,0.023429
38.935,62.2206,0.023429
38.950,62.2056,0.023429
38.967,62.1896,0.023429
38.983,62.1725,0.023429
38.999,62.1563,0.023429
39.014,62.1403,0.040938
39.030,62.1241,0.040938
39.046,62.1070,0.040938
39.062,62.0901,0.040938
39.079,62.0726,0.040938
39.095,62.0550,0.040938
39.110,62.0376,0.040938
39.127,62.0192,0.040938
39.143,62.0015,0.040938
39.158,61.9820,0.040938
39.181,61.9564,0.040938
39.197,61.9383,0.040938
39.213,61.9193,0.040938
39.229,61.9006,0.040938
39.246,61.8804,0.040938
39.261,61.8617,0.061713
39.277,61.8421,0.061713
39.294,61.8218,0.061713
39.309,61.8017,0.061713
39.325,61.7819,0.061713
39.341,61.7613,0.061713
39.357,61.7406,0.061713
39.373,61.7198,0.061713
39.390,61.6974,0.061713
39.407,61.6750,0.061713
39.422,61.6548,0.061713
39.438,61.6336,0.061713
39.454,61.6121,0.061713
39.470,61.5905,0.061713
39.486,61.5673,0.061713
39.501,61.5465,0.061713
39.517,61.5238,0.035949
39.533,61.5006,0.035949
39.550,61.4771,0.035949
39.566,61.4546,0.035949
39.581,61.4317,0.035949
39.597,61.4083,0.035949
39.615,61.3812,0.035949
39.640,61.3435,0.035949
39.661,61.3121,0.035949
39.680,61.2812,0.035949
39.704,61.2451,0.035949
39.725,61.2128,0.035949
39.741,61.1871,0.035949
39.765,61.1488,0.035949
39.781,61.1233,0.035949
39.798,61.0972,-0.000555
39.813,61.0714,-0.000555
39.830,61.0431,-0.000555
39.845,61.0183,-0.000555
39.862,60.9905,-0.000555
39.877,60.9645,-0.000555
39.893,60.9373,-0.000555
39.909,60.9104,-0.000555
39.925,60.8834,-0.000555
39.941,60.8553,-0.000555
39.958,60.8258,-0.000555
39.973,60.7993,-0.000555
39.989,60.7712,-0.000678
40.005,60.7428,-0.000678
40.022,60.7128,-0.000678
40.037,60.6852,-0.000678
40.053,60.6554,-0.000678
40.069,60.6265,-0.000678
40.086,60.5959,-0.000678
40.101,60.5670,-0.000678
40.117,60.5381,-0.000678
40.134,60.5055,-0.000678
40.149,60.4766,-0.000678
40.165,60.4460,-0.000678
40.181,60.4147,-0.000678
40.199,60.3829,-0.000678
40.229,60.3244,-0.000678
40.245,60.2924,-0.000668
40.264,60.2544,-0.000668
40.289,60.2047,-0.000668
40.309,60.1649,-0.000668
40.326,60.1308,-0.000668
40.350,60.0802,-0.000668
40.382,60.0144,-0.000668
40.412,59.9519,-0.000668
40.443,59.8858,-0.000668
40.474,59.8213,-0.000668
40.490,59.7879,-0.000668
40.521,59.7231,-0.000668
40.536,59.6904,-0.000668
40.567,59.6243,-0.000668
40.582,59.5939,-0.000668
40.597,59.5637,-0.000668
40.613,59.5311,-0.000668
40.629,59.4985,-0.000668
40.645,59.4659,-0.000668
40.661,59.4353,-0.000668
40.679,59.3988,-0.000668
40.697,59.3628,-0.000668
40.721,59.3143,-0.000668
40.741,59.2769,-0.000668
40.757,59.2464,-0.000668
40.773,59.2166,-0.000659
40.789,59.1853,-0.000659
40.806,59.1530,-0.000659
40.831,59.1073,-0.000659
40.861,59.0495,-0.000659
40.891,58.9951,-0.000659
40.922,58.9383,-0.000659
40.937,58.9111,-0.000659
40.968,58.8584,-0.000659
40.999,58.8024,-0.000706
41.015,58.7759,-0.000706
41.031,58.7458,-0.000706
41.047,58.7191,-0.000706
41.062,58.6953,-0.000706
41.093,58.6424,-0.000706
41.114,58.6049,-0.000706
41.139,58.5670,-0.000706
41.157,58.5373,-0.000706
41.173,58.5113,-0.000706
41.190,58.4849,-0.000706
41.205,58.4613,-0.000706
41.221,58.4349,-0.000706
41.237,58.4097,-0.000706
41.252,58.3856,-0.000687
41.269,58.3595,-0.000687
41.286,58.3353,-0.000687
41.309,58.2997,-0.000687
41.340,58.2538,-0.000687
41.370,58.2082,-0.000687
41.401,58.1639,-0.000687
41.432,58.1197,-0.000687
41.463,58.0757,-0.000687
41.478,58.0552,-0.000687
41.495,58.0329,-0.000584
41.511,58.0104,-0.000584
41.542,57.9695,-0.000584
41.557,57.9495,-0.000584
41.573,57.9270,-0.000584
41.589,57.9077,-0.000584
41.605,57.8872,-0.000584
41.621,57.8671,-0.000584
41.638,57.8444,-0.000584
41.665,57.8109,-0.000584
41.685,57.7870,-0.000584
41.701,57.7673,-0.000584
41.716,57.7487,-0.000584
41.732,57.7294,-0.000574
41.748,57.7107,-0.000574
41.765,57.6919,-0.000574
41.781,57.6729,-0.000574
41.797,57.6553,-0.000574
41.813,57.6367,-0.000574
41.829,57.6187,-0.000574
41.845,57.6008,-0.000574
41.860,57.5841,-0.000574
41.876,57.5667,-0.000574
41.892,57.5495,-0.000574
41.908,57.5320,-0.000574
41.924,57.5160,-0.000574
41.940,57.4994,-0.000574
41.956,57.4830,-0.000574
41.972,57.4661,-0.000574
41.989,57.4505,-0.000537
42.005,57.4346,-0.000537
42.020,57.4196,-0.000537
42.036,57.4041,-0.000537
42.052,57.3887,-0.000537
42.069,57.3734,-0.000537
42.085,57.3584,-0.000537
42.100,57.3445,-0.000537
42.116,57.3300,-0.000537
42.132,57.3158,-0.000537
42.149,57.3014,-0.000537
42.164,57.2879,-0.000537
42.180,57.2741,-0.000537
42.196,57.2605,-0.000537
42.212,57.2475,-0.000537
42.229,57.2337,-0.000537
42.245,57.2208,-0.000537
42.261,57.2088,-0.000537
42.276,57.1965,-0.000414
42.292,57.1840,-0.000414
42.309,57.1715,-0.000414
42.324,57.1603,-0.000414
42.340,57.1484,-0.000414
42.356,57.1370,-0.000414
42.372,57.1254,-0.000414
42.388,57.1145,-0.000414
42.404,57.1032,-0.000414
42.421,57.0922,-0.000414
42.439,57.0802,-0.000414
42.470,57.0610,-0.000414
42.501,57.0416,-0.000414
42.516,57.0323,-0.000358
42.532,57.0230,-0.000358
42.550,57.0130,-0.000358
42.578,56.9972,-0.000358
42.596,56.9874,-0.000358
42.614,56.9776,-0.000358
42.640,56.9647,-0.000358
42.660,56.9548,-0.000358
42.676,56.9471,-0.000358
42.692,56.9398,-0.000358
42.708,56.9325,-0.000358
42.724,56.9254,-0.000358
42.740,56.9184,-0.000358
42.756,56.9116,-0.000377
42.772,56.9055,-0.000377
42.788,56.8990,-0.000377
42.804,56.8931,-0.000377
42.820,56.8872,-0.000377
42.836,56.8814,-0.000377
42.853,56.8758,-0.000377
42.869,56.8705,-0.000377
42.884,56.8655,-0.000377
42.901,56.8602,-0.000377
42.916,56.8557,-0.000377
42.932,56.8512,-0.000377
42.948,56.8469,-0.000377
42.964,56.8427,-0.000377
42.981,56.8386,-0.000377
42.997,56.8349,-0.000377
43.026,56.8284,-0.000329
43.041,56.8253,-0.000329
43.057,56.8223,-0.000329
43.073,56.8196,-0.000329
43.089,56.8169,-0.000329
43.105,56.8144,-0.000329
43.121,56.8122,-0.000329
43.137,56.8102,-0.000329
43.153,56.8082,-0.000329
43.170,56.8065,-0.000329
43.185,56.8051,-0.000329
43.201,56.8039,-0.000329
43.219,56.8026,-0.000329
43.244,56.8012,-0.000311
43.265,56.8006,-0.000311
43.282,56.8003,-0.000311
43.297,56.8001,-0.000311
43.313,56.8001,-0.000311
43.329,56.8001,-0.000311
43.345,56.8001,-0.000311
43.361,56.8001,-0.000311
43.377,56.8001,-0.000311
43.393,56.8001,-0.000311
43.410,56.8001,-0.000311
43.425,56.8001,-0.000311
43.441,56.8001,-0.000311
43.457,56.8001,-0.000311
43.473,56.8003,-0.000311
43.489,56.8007,-0.000254
43.505,56.8012,-0.000254
43.521,56.8020,-0.000254
43.537,56.8030,-0.000254
43.553,56.8041,-0.000254
43.581,56.8066,-0.000254
43.598,56.8084,-0.000254
43.616,56.8105,-0.000254
43.647,56.8148,-0.000254
43.678,56.8196,-0.000254
43.709,56.8253,-0.000254
43.725,56.8285,-0.000254
43.741,56.8320,-0.000264
43.757,56.8357,-0.000264
43.777,56.8403,-0.000264
43.802,56.8469,-0.000264
43.821,56.8520,-0.000264
43.837,56.8567,-0.000264
43.853,56.8613,-0.000264
43.869,56.8664,-0.000264
43.885,56.8714,-0.000264
43.901,56.8768,-0.000264
43.918,56.8826,-0.000264
43.933,56.8883,-0.000264
43.949,56.8939,-0.000264
43.965,56.9003,-0.000264
43.981,56.9065,-0.000264
43.997,56.9129,-0.000348
44.013,56.9196,-0.000348
44.029,56.9270,-0.000348
44.045,56.9337,-0.000348
44.061,56.9409,-0.000348
44.077,56.9483,-0.000348
44.093,56.9562,-0.000348
44.109,56.9642,-0.000348
44.140,56.9800,-0.000348
44.155,56.9878,-0.000348
44.171,56.9967,-0.000348
44.187,57.0056,-0.000348
44.207,57.0167,-0.000348
44.233,57.0318,-0.000311
44.251,57.0422,-0.000311
44.273,57.0569,-0.000311
44.298,57.0724,-0.000311
44.315,57.0828,-0.000311
44.331,57.0934,-0.000311
44.347,57.1042,-0.000311
44.363,57.1150,-0.000311
44.379,57.1259,-0.000311
44.395,57.1375,-0.000311
44.411,57.1490,-0.000311
44.426,57.1603,-0.000311
44.443,57.1724,-0.000311
44.459,57.1852,-0.000311
44.474,57.1968,-0.000311
44.491,57.2093,-0.000339
44.507,57.2229,-0.000339
44.524,57.2364,-0.000339
44.543,57.2521,-0.000339
44.574,57.2779,-0.000339
44.590,57.2915,-0.000339
44.620,57.3179,-0.000339
44.636,57.3318,-0.000339
44.667,57.3605,-0.000339
44.694,57.3854,-0.000339
44.711,57.4011,-0.000339
44.727,57.4163,-0.000339
44.742,57.4314,-0.000386
44.762,57.4516,-0.000386
44.792,57.4819,-0.000386
44.821,57.5117,-0.000386
44.838,57.5289,-0.000386
44.854,57.5459,-0.000386
44.871,57.5630,-0.000386
44.886,57.5801,-0.000386
44.902,57.5976,-0.000386
44.919,57.6157,-0.000386
44.934,57.6331,-0.000386
44.951,57.6516,-0.000386
44.966,57.6695,-0.000386
44.982,57.6878,-0.000471
44.998,57.7064,-0.000471
45.015,57.7256,-0.000471
45.030,57.7443,-0.000471
45.047,57.7645,-0.000471
45.062,57.7830,-0.000471
45.078,57.8035,-0.000471
45.094,57.8225,-0.000471
45.110,57.8422,-0.000471
45.127,57.8629,-0.000471
45.143,57.8835,-0.000471
45.158,57.9036,-0.000471
45.174,57.9243,-0.000471
45.190,57.9454,-0.000471
45.217,57.9802,-0.000471
45.233,58.0015,-0.000471
45.249,58.0240,-0.000537
45.265,58.0453,-0.000537
45.280,58.0665,-0.000537
45.297,58.0901,-0.000537
45.312,58.1113,-0.000537
45.329,58.1351,-0.000537
45.344,58.1569,-0.000537
45.360,58.1798,-0.000537
45.376,58.2031,-0.000537
45.392,58.2268,-0.000537
45.408,58.2501,-0.000537
45.424,58.2753,-0.000537
45.440,58.2977,-0.000537
45.456,58.3234,-0.000537
45.472,58.3466,-0.000537
45.488,58.3709,-0.000593
45.505,58.3964,-0.000593
45.520,58.4206,-0.000593
45.536,58.4458,-0.000593
45.553,58.4723,-0.000593
45.568,58.4968,-0.000593
45.584,58.5227,-0.000593
45.600,58.5484,-0.000593
45.616,58.5753,-0.000593
45.632,58.6012,-0.000593
45.648,58.6280,-0.000593
45.664,58.6540,-0.000593
45.680,58.6819,-0.000593
45.696,58.7076,-0.000593
45.713,58.7360,-0.000593
45.737,58.7783,-0.000593
45.753,58.8073,-0.000593
45.769,58.8347,-0.000612
45.785,58.8629,-0.000612
45.802,58.8919,-0.000612
45.817,58.9193,-0.000612
45.833,58.9488,-0.000612
45.849,58.9769,-0.000612
45.865,59.0065,-0.000612
45.881,59.0358,-0.000612
45.897,59.0643,-0.000612
45.913,59.0952,-0.000612
45.929,59.1246,-0.000612
45.945,59.1546,-0.000612
45.961,59.1853,-0.000612
45.977,59.2155,-0.000612
45.993,59.2465,-0.000612
46.009,59.2772,-0.000640
46.025,59.3075,-0.000640
46.042,59.3415,-0.000640
46.058,59.3729,-0.000640
46.073,59.4036,-0.000640
46.089,59.4338,-0.000640
46.105,59.4664,-0.000640
46.121,59.4980,-0.000640
46.137,59.5311,-0.000640
46.153,59.5632,-0.000640
46.171,59.6017,-0.000640
46.196,59.6534,-0.000640
46.217,59.6960,-0.000640
46.233,59.7299,-0.000640
46.249,59.7647,-0.000640
46.265,59.7980,-0.000640
46.290,59.8504,-0.000791
46.309,59.8904,-0.000791
46.336,59.9472,-0.000791
46.355,59.9864,-0.000791
46.384,60.0459,-0.000791
46.401,60.0801,-0.000791
46.417,60.1137,-0.000791
46.433,60.1447,-0.000791
46.449,60.1764,-0.000791
46.469,60.2197,-0.000791
46.491,60.2596,-0.000791
46.522,60.3210,-0.000744
46.554,60.3817,-0.000744
46.584,60.4398,-0.000744
46.601,60.4710,-0.000744
46.631,60.5274,-0.000744
46.647,60.5562,-0.000744
46.662,60.5859,-0.000744
46.693,60.6408,-0.000744
46.710,60.6720,-0.000744
46.740,60.7241,-0.000631
46.756,60.7529,-0.000631
46.786,60.8055,-0.000631
46.816,60.8574,-0.000631
46.833,60.8861,-0.000631
46.849,60.9137,-0.000631
46.865,60.9400,-0.000631
46.881,60.9666,-0.000631
46.898,60.9946,-0.000631
46.913,61.0215,-0.000631
46.929,61.0463,-0.000631
46.945,61.0715,-0.000631
46.961,61.0980,-0.000631
46.977,61.1238,-0.000631
46.993,61.1481,-0.000697
47.009,61.1741,-0.000697
47.025,61.2002,-0.000697
47.041,61.2238,-0.000697
47.056,61.2477,-0.000697
47.073,61.2723,-0.000697
47.089,61.2975,-0.000697
47.105,61.3214,-0.000697
47.120,61.3443,-0.000697
47.137,61.3689,-0.000697
47.152,61.3915,-0.000697
47.168,61.4148,-0.000697
47.184,61.4377,-0.000697
47.201,61.4625,-0.000697
47.216,61.4841,-0.000697
47.233,61.5072,-0.000725
47.248,61.5284,-0.000725
47.267,61.5535,-0.000725
47.295,61.5930,-0.000725
47.312,61.6152,-0.000725
47.329,61.6382,-0.000725
47.352,61.6678,-0.000725
47.367,61.6875,-0.000725
47.382,61.7070,-0.000725
47.398,61.7276,-0.000725
47.415,61.7495,-0.000725
47.433,61.7727,-0.000725
47.465,61.8107,-0.000725
47.496,61.8494,-0.000725
47.526,61.8846,-0.000612
47.550,61.9129,-0.000612
47.573,61.9389,-0.000612
47.591,61.9590,-0.000612
47.607,61.9772,-0.000612
47.622,61.9942,-0.000612
47.639,62.0120,-0.000612
47.655,62.0304,-0.000612
47.671,62.0466,-0.000612
47.687,62.0642,-0.000612
47.712,62.0903,-0.000612
47.743,62.1216,-0.000612
47.774,62.1534,-0.000555
47.789,62.1676,-0.000555
47.805,62.1841,-0.000555
47.835,62.2129,-0.000555
47.866,62.2414,-0.000555
47.882,62.2558,-0.000555
47.897,62.2697,-0.000555
47.928,62.2971,-0.000555
47.958,62.3226,-0.000555
47.974,62.3364,-0.000555
47.991,62.3499,-0.000555
48.006,62.3625,-0.000593
48.022,62.3752,-0.000593
48.042,62.3916,-0.000593
48.058,62.4038,-0.000593
48.082,62.4217,-0.000593
48.103,62.4376,-0.000593
48.118,62.4487,-0.000593
48.135,62.4606,-0.000593
48.150,62.4716,-0.000593
48.166,62.4828,-0.000593
48.183,62.4943,-0.000593
48.198,62.5046,-0.000593
48.214,62.5153,-0.000593
48.231,62.5260,-0.000593
48.246,62.5357,-0.000640
48.262,62.5458,-0.000640
48.278,62.5556,-0.000640
48.294,62.5655,-0.000640
48.310,62.5749,-0.000640
48.326,62.5841,-0.000640
48.342,62.5931,-0.000640
48.359,62.6023,-0.000640
48.375,62.6110,-0.000640
48.404,62.6261,-0.000640
48.419,62.6343,-0.000640
48.435,62.6419,-0.000640
48.451,62.6498,-0.000640
48.467,62.6575,-0.000640
48.483,62.6646,-0.000640
48.499,62.6716,-0.000668
48.515,62.6787,-0.000668
48.532,62.6858,-0.000668
48.562,62.6977,-0.000668
48.579,62.7044,-0.000668
48.598,62.7116,-0.000668
48.624,62.7210,-0.000668
48.643,62.7272,-0.000668
48.662,62.7334,-0.000668
48.686,62.7409,-0.000668
48.707,62.7469,-0.000668
48.724,62.7516,-0.000668
48.739,62.7557,-0.000668
48.755,62.7596,-0.000706
48.771,62.7635,-0.000706
48.788,62.7675,-0.000706
48.803,62.7707,-0.000706
48.819,62.7738,-0.000706
48.836,62.7772,-0.000706
48.852,62.7799,-0.000706
48.867,62.7825,-0.000706
48.883,62.7851,-0.000706
48.899,62.7875,-0.000706
48.915,62.7895,-0.000706
48.931,62.7915,-0.000706
48.962,62.7947,-0.000706
48.979,62.7960,-0.000706
48.994,62.7972,-0.000762
49.010,62.7980,-0.000762
49.027,62.7989,-0.000762
49.056,62.7998,-0.000762
49.074,62.8000,-0.000762
49.091,62.8000,-0.000762
49.109,62.8000,-0.000762
49.133,62.8000,-0.000762
49.154,62.8000,-0.000762
49.170,62.8000,-0.000762
49.186,62.8000,-0.000762
49.202,62.8000,-0.000762
49.218,62.8000,-0.000762
49.234,62.8000,-0.000819
49.250,62.8000,-0.000819
49.266,62.8000,-0.000819
49.282,62.8000,-0.000819
49.298,62.8000,-0.000819
49.314,62.8000,-0.000819
49.330,62.8000,-0.000819
49.346,62.8000,-0.000819
49.362,62.8000,-0.000819
49.378,62.8000,-0.000819
49.394,62.8000,-0.000819
49.410,62.8000,-0.000819
49.426,62.8000,-0.000819
49.442,62.8000,-0.000819
49.458,62.8000,-0.000819
49.488,62.8000,-0.000819
49.503,62.8000,-0.000819
49.519,62.8000,-0.000819
49.535,62.8000,-0.000819
49.551,62.8000,-0.000819
49.567,62.8000,-0.000819
49.583,62.8000,-0.000819
49.599,62.8000,-0.000819
49.615,62.8000,-0.000819
49.631,62.8000,-0.000819
49.647,62.8000,-0.000819
49.663,62.8000,-0.000819
49.679,62.8000,-0.000819
49.695,62.8000,-0.000819
49.711,62.8000,-0.000819
49.727,62.8000,-0.000819
49.743,62.8000,-0.000819
49.759,62.8000,-0.000819
49.775,62.8000,-0.000838
49.791,62.8000,-0.000838
49.808,62.8000,-0.000838
49.828,62.8000,-0.000838
49.844,62.8000,-0.000838
49.859,62.8000,-0.000838
49.875,62.8000,-0.000838
49.890,62.8000,-0.000838
49.923,62.8000,-0.000838
49.953,62.8000,-0.000838
49.984,62.8000,-0.000838
49.999,62.8000,-0.000838
50.015,62.8000,-0.000838
50.046,62.8000,-0.000810
50.068,62.8000,-0.000810
50.091,62.8000,-0.000810
50.110,62.8000,-0.000810
50.138,62.8000,-0.000810
50.157,62.8000,-0.000810
50.173,62.8000,-0.000810
50.188,62.8000,-0.000810
50.204,62.8000,-0.000810
50.221,62.8000,-0.000810
50.237,62.8000,-0.000810
50.253,62.8000,-0.000791
50.269,62.8000,-0.000791
50.285,62.8000,-0.000791
50.300,62.8000,-0.000791
50.316,62.8000,-0.000791
50.333,62.8000,-0.000791
50.349,62.8000,-0.000791
50.364,62.8000,-0.000791
50.381,62.8000,-0.000791
50.397,62.8000,-0.000791
50.413,62.8000,-0.000791
50.429,62.8000,-0.000791
50.445,62.8000,-0.000791
50.461,62.8000,-0.000791
50.477,62.8000,-0.000791
50.492,62.8000,-0.000791
50.509,62.8000,-0.000791
50.525,62.8000,-0.000791
50.541,62.8000,-0.000791
50.557,62.8000,-0.000791
50.587,62.8000,-0.000791
50.603,62.8000,-0.000791
50.618,62.8000,-0.000791
50.634,62.8000,-0.000791
50.651,62.8000,-0.000791
50.667,62.8000,-0.000791
50.682,62.8000,-0.000791
50.699,62.8000,-0.000791
50.715,62.8000,-0.000791
50.730,62.8000,-0.000791
50.746,62.8000,-0.000781
50.762,62.8000,-0.000781
50.780,62.8000,-0.000781
50.806,62.8000,-0.000781
50.827,62.8000,-0.000781
50.843,62.8000,-0.000781
50.858,62.8000,-0.000781
50.875,62.8000,-0.000781
50.891,62.8000,-0.000781
50.906,62.8000,-0.000781
50.923,62.8000,-0.000781
50.938,62.8000,-0.000781
50.955,62.8000,-0.000781
50.971,62.8000,-0.000781
50.987,62.8000,-0.000828
51.002,62.8000,-0.000828
51.019,62.8000,-0.000828
51.034,62.8000,-0.000828
51.050,62.8000,-0.000828
51.066,62.8000,-0.000828
51.083,62.8000,-0.000828
51.099,62.8000,-0.000828
51.114,62.8000,-0.000828
51.145,62.8000,-0.000828
51.160,62.8000,-0.000828
51.176,62.8000,-0.000828
51.192,62.8000,-0.000828
51.209,62.8000,-0.000828
51.225,62.8000,-0.000828
51.241,62.8000,-0.000819
51.257,62.8000,-0.000819
51.276,62.8000,-0.000819
51.299,62.8000,-0.000819
51.321,62.8000,-0.000819
51.336,62.8000,-0.000819
51.353,62.8000,-0.000819
51.368,62.8000,-0.000819
51.385,62.8000,-0.000819
51.402,62.8000,-0.000819
51.423,62.8000,-0.000819
51.438,62.8000,-0.000819
51.453,62.8000,-0.000819
51.470,62.8000,-0.000819
51.499,62.8000,-0.000819
51.515,62.8000,-0.000819
51.546,62.8000,-0.000819
51.576,62.8000,-0.000819
51.593,62.8000,-0.000819
51.608,62.8000,-0.000819
51.624,62.8000,-0.000819
51.640,62.8000,-0.000819
51.657,62.8000,-0.000819
51.673,62.8000,-0.000819
51.700,62.8000,-0.000819
51.717,62.8000,-0.000819
51.732,62.8000,-0.000847
51.748,62.8000,-0.000847
51.765,62.8000,-0.000847
51.781,62.8000,-0.000847
51.796,62.8000,-0.000847
51.812,62.8000,-0.000847
51.829,62.8000,-0.000847
51.844,62.8000,-0.000847
51.860,62.8000,-0.000847
51.876,62.8000,-0.000847
51.892,62.8000,-0.000847
51.908,62.8000,-0.000847
51.924,62.8000,-0.000847
51.940,62.8000,-0.000847
51.957,62.8000,-0.000847
51.972,62.8000,-0.000847
51.988,62.8000,-0.000828
52.005,62.8000,-0.000828
52.021,62.8000,-0.000828
52.042,62.8000,-0.000828
52.073,62.8000,-0.000828
52.104,62.8000,-0.000828
52.120,62.8000,-0.000828
52.151,62.8000,-0.000828
52.182,62.8000,-0.000828
52.198,62.8000,-0.000828
52.229,62.8000,-0.000828
52.259,62.8000,-0.000753
52.276,62.8000,-0.000753
52.291,62.8000,-0.000753
52.307,62.8000,-0.000753
52.324,62.8000,-0.000753
52.339,62.8000,-0.000753
52.355,62.8000,-0.000753
52.371,62.8000,-0.000753
52.388,62.8000,-0.000753
52.415,62.8000,-0.000753
52.435,62.8000,-0.000753
52.451,62.8000,-0.000753
52.468,62.8000,-0.000753
52.492,62.8000,-0.000810
52.508,62.8000,-0.000810
52.539,62.8000,-0.000810
52.569,62.8000,-0.000810
52.600,62.8000,-0.000810
52.616,62.8000,-0.000810
52.647,62.8000,-0.000810
52.663,62.8000,-0.000810
52.693,62.8000,-0.000810
52.723,62.8000,-0.000810
52.739,62.8000,-0.000847
52.755,62.8000,-0.000847
52.771,62.8000,-0.000847
52.787,62.8000,-0.000847
52.810,62.8000,-0.000847
52.825,62.8000,-0.000847
52.841,62.8000,-0.000847
52.857,62.8000,-0.000847
52.873,62.8000,-0.000847
52.889,62.8000,-0.000847
52.904,62.8000,-0.000847
52.921,62.8000,-0.000847
52.937,62.8000,-0.000847
52.953,62.8000,-0.000847
52.969,62.8000,-0.000847
52.985,62.8000,-0.000847
53.000,62.8000,-0.000847
53.017,62.8000,-0.000762
53.033,62.8000,-0.000762
53.049,62.8000,-0.000762
53.064,62.8000,-0.000762
53.081,62.8000,-0.000762
53.097,62.8000,-0.000762
53.113,62.8000,-0.000762
53.128,62.8000,-0.000762
53.145,62.8000,-0.000762
53.161,62.8000,-0.000762
53.177,62.8000,-0.000762
53.192,62.8000,-0.000762
53.209,62.8000,-0.000762
53.225,62.8000,-0.000762
53.241,62.8000,-0.000762
53.257,62.8000,-0.000762
53.272,62.8000,-0.000753
53.288,62.8000,-0.000753
53.305,62.8000,-0.000753
53.320,62.8000,-0.000753
53.337,62.8000,-0.000753
53.358,62.8000,-0.000753
53.374,62.8000,-0.000753
53.390,62.8000,-0.000753
53.406,62.8000,-0.000753
53.423,62.8000,-0.000753
53.438,62.8000,-0.000753
53.454,62.8000,-0.000753
53.472,62.8000,-0.000753
53.491,62.8000,-0.000753
53.512,62.8000,-0.000753
53.543,62.8000,-0.000791
53.573,62.8000,-0.000791
53.604,62.8000,-0.000791
53.619,62.8000,-0.000791
53.635,62.8000,-0.000791
53.666,62.8000,-0.000791
53.696,62.8000,-0.000791
53.726,62.8000,-0.000791
53.743,62.8000,-0.000791
53.759,62.8000,-0.000800
53.774,62.8000,-0.000800
53.791,62.8000,-0.000800
53.806,62.8000,-0.000800
53.823,62.8000,-0.000800
53.838,62.8000,-0.000800
53.860,62.8000,-0.000800
53.884,62.8000,-0.000800
53.903,62.8000,-0.000800
53.929,62.8000,-0.000800
53.948,62.8000,-0.000800
53.964,62.8000,-0.000800
53.979,62.8000,-0.000800
53.997,62.8000,-0.000800
54.022,62.8000,-0.000800
54.052,62.8000,-0.000772
54.068,62.8000,-0.000772
54.098,62.8000,-0.000772
54.115,62.8000,-0.000772
54.130,62.8000,-0.000772
54.161,62.8000,-0.000772
54.178,62.8000,-0.000772
54.206,62.8000,-0.000772
54.222,62.8000,-0.000772
54.254,62.8000,-0.000772
54.269,62.8000,-0.000753
54.284,62.8000,-0.000753
54.302,62.8000,-0.000753
54.331,62.8000,-0.000753
54.347,62.8000,-0.000753
54.366,62.7999,-0.000753
54.393,62.7993,-0.000753
54.426,62.7977,-0.000753
54.442,62.7967,-0.000753
54.461,62.7952,-0.000753
54.487,62.7926,-0.000800
54.506,62.7906,-0.000800
54.521,62.7886,-0.000800
54.537,62.7864,-0.000800
54.554,62.7839,-0.000800
54.570,62.7813,-0.000800
54.595,62.7767,-0.000800
54.622,62.7714,-0.000800
54.642,62.7673,-0.000800
54.673,62.7598,-0.000800
54.688,62.7561,-0.000800
54.719,62.7477,-0.000800
54.749,62.7389,-0.000800
54.780,62.7288,0.000433
54.797,62.7236,0.000433
54.827,62.7129,0.000433
54.857,62.7014,0.000433
54.873,62.6955,0.000433
54.889,62.6888,0.000433
54.905,62.6823,0.000433
54.921,62.6752,0.000433
54.937,62.6684,0.000433
54.964,62.6561,0.000433
54.979,62.6488,0.000433
54.995,62.6410,0.004810
55.011,62.6334,0.004810
55.028,62.6246,0.004810
55.058,62.6088,0.004810
55.075,62.5998,0.004810
55.091,62.5908,0.004810
55.107,62.5817,0.004810
55.123,62.5724,0.004810
55.140,62.5624,0.004810
55.156,62.5527,0.004810
55.171,62.5433,0.004810
55.187,62.5332,0.004810
55.203,62.5231,0.004810
55.219,62.5120,0.004810
55.235,62.5017,0.004810
55.251,62.4912,0.013047
55.267,62.4798,0.013047
55.283,62.4685,0.013047
55.299,62.4575,0.013047
55.315,62.4456,0.013047
55.331,62.4341,0.013047
55.347,62.4217,0.013047
55.363,62.4098,0.013047
55.379,62.3973,0.013047
55.395,62.3845,0.013047
55.411,62.3715,0.013047
55.427,62.3589,0.013047
55.443,62.3455,0.013047
55.460,62.3321,0.013047
55.475,62.3189,0.013047
55.491,62.3054,0.013047
55.518,62.2808,0.025773
55.534,62.2671,0.025773
55.550,62.2528,0.025773
55.566,62.2382,0.025773
55.583,62.2218,0.025773
55.598,62.2080,0.025773
55.614,62.1933,0.025773
55.630,62.1777,0.025773
55.646,62.1619,0.025773
55.663,62.1449,0.025773
55.678,62.1300,0.025773
55.694,62.1139,0.025773
55.715,62.0921,0.025773
55.737,62.0685,0.037192
55.758,62.0474,0.037192
55.775,62.0293,0.037192
55.790,62.0125,0.037192
55.806,61.9953,0.037192
55.822,61.9776,0.037192
55.838,61.9591,0.037192
55.854,61.9407,0.037192
55.870,61.9232,0.037192
55.886,61.9046,0.037192
55.902,61.8853,0.037192
55.918,61.8671,0.037192
55.934,61.8474,0.037192
55.949,61.8284,0.037192
55.966,61.8088,0.037192
55.981,61.7892,0.020408
55.998,61.7684,0.020408
56.015,61.7475,0.020408
56.030,61.7277,0.020408
56.046,61.7077,0.020408
56.075,61.6689,0.020408
56.092,61.6480,0.020408
56.107,61.6275,0.020408
56.123,61.6062,0.020408
56.143,61.5783,0.020408
56.170,61.5425,0.020408
56.187,61.5187,0.020408
56.205,61.4940,0.020408
56.220,61.4730,0.020408
56.236,61.4505,-0.000358
56.252,61.4281,-0.000358
56.277,61.3904,-0.000358
56.309,61.3443,-0.000358
56.338,61.3002,-0.000358
56.354,61.2754,-0.000358
56.385,61.2285,-0.000358
56.415,61.1804,-0.000358
56.446,61.1326,-0.000358
56.462,61.1077,-0.000358
56.492,61.0577,-0.000555
56.523,61.0086,-0.000555
56.540,60.9810,-0.000555
56.556,60.9547,-0.000555
56.572,60.9270,-0.000555
56.587,60.9010,-0.000555
56.603,60.8739,-0.000555
56.632,60.8252,-0.000555
56.648,60.7970,-0.000555
56.663,60.7697,-0.000555
56.680,60.7415,-0.000555
56.696,60.7126,-0.000555
56.712,60.6838,-0.000555
56.727,60.6568,-0.000555
56.743,60.6275,-0.000621
56.760,60.5980,-0.000621
56.775,60.5692,-0.000621
56.791,60.5397,-0.000621
56.807,60.5093,-0.000621
56.823,60.4799,-0.000621
56.839,60.4496,-0.000621
56.856,60.4190,-0.000621
56.872,60.3878,-0.000621
56.887,60.3589,-0.000621
56.903,60.3280,-0.000621
56.919,60.2967,-0.000621
56.944,60.2482,-0.000621
56.973,60.1907,-0.000621
56.989,60.1582,-0.000621
57.005,60.1264,-0.000621
57.036,60.0650,-0.000650
57.066,60.0022,-0.000650
57.082,59.9689,-0.000650
57.098,59.9363,-0.000650
57.129,59.8727,-0.000650
57.159,59.8077,-0.000650
57.176,59.7707,-0.000650
57.206,59.7074,-0.000650
57.223,59.6718,-0.000650
57.241,59.6352,-0.000650
57.268,59.5768,-0.000584
57.287,59.5383,-0.000584
57.304,59.5048,-0.000584
57.319,59.4740,-0.000584
57.335,59.4413,-0.000584
57.351,59.4083,-0.000584
57.368,59.3757,-0.000584
57.383,59.3445,-0.000584
57.400,59.3123,-0.000584
57.415,59.2821,-0.000584
57.432,59.2491,-0.000584
57.447,59.2198,-0.000584
57.463,59.1893,-0.000584
57.479,59.1586,-0.000584
57.497,59.1251,-0.000584
57.517,59.0870,-0.000659
57.547,59.0302,-0.000659
57.563,59.0009,-0.000659
57.594,58.9423,-0.000659
57.609,58.9161,-0.000659
57.640,58.8607,-0.000659
57.655,58.8335,-0.000659
57.671,58.8020,-0.000659
57.693,58.7671,-0.000659
57.709,58.7382,-0.000659
57.725,58.7115,-0.000659
57.741,58.6842,-0.000744
57.757,58.6559,-0.000744
57.773,58.6298,-0.000744
57.789,58.6021,-0.000744
57.805,58.5748,-0.000744
57.822,58.5486,-0.000744
57.837,58.5226,-0.000744
57.853,58.4974,-0.000744
57.870,58.4687,-0.000744
57.887,58.4421,-0.000744
57.917,58.3956,-0.000744
57.934,58.3670,-0.000744
57.949,58.3442,-0.000744
57.965,58.3197,-0.000744
57.981,58.2956,-0.000744
58.000,58.2642,-0.000744
58.025,58.2294,-0.000659
58.045,58.1992,-0.000659
58.061,58.1749,-0.000659
58.077,58.1512,-0.000659
58.093,58.1292,-0.000659
58.109,58.1057,-0.000659
58.125,58.0830,-0.000659
58.141,58.0601,-0.000659
58.157,58.0384,-0.000659
58.173,58.0153,-0.000659
58.189,57.9935,-0.000659
58.205,57.9719,-0.000659
58.221,57.9497,-0.000659
58.244,57.9187,-0.000659
58.268,57.8869,-0.000659
58.290,57.8588,-0.000640
58.307,57.8373,-0.000640
58.323,57.8164,-0.000640
58.339,57.7959,-0.000640
58.355,57.7766,-0.000640
58.371,57.7560,-0.000640
58.387,57.7364,-0.000640
58.403,57.7173,-0.000640
58.419,57.6984,-0.000640
58.436,57.6771,-0.000640
58.460,57.6502,-0.000640
58.475,57.6315,-0.000640
58.506,57.5969,-0.000640
58.536,57.5620,-0.000584
58.567,57.5285,-0.000584
58.583,57.5121,-0.000584
58.614,57.4789,-0.000584
58.645,57.4463,-0.000584
58.676,57.4139,-0.000584
58.706,57.3851,-0.000584
58.723,57.3689,-0.000584
58.739,57.3529,-0.000584
58.755,57.3381,-0.000584
58.771,57.3234,-0.000584
58.799,57.2978,-0.000508
58.815,57.2827,-0.000508
58.831,57.2684,-0.000508
58.847,57.2550,-0.000508
58.863,57.2404,-0.000508
58.879,57.2271,-0.000508
58.895,57.2140,-0.000508
58.911,57.2006,-0.000508
58.927,57.1871,-0.000508
58.943,57.1744,-0.000508
58.959,57.1610,-0.000508
58.975,57.1485,-0.000508
58.991,57.1369,-0.000508
59.007,57.1240,-0.000508
59.023,57.1129,-0.000480
59.039,57.1011,-0.000480
59.056,57.0887,-0.000480
59.071,57.0779,-0.000480
59.087,57.0669,-0.000480
59.103,57.0557,-0.000480
59.119,57.0447,-0.000480
59.134,57.0347,-0.000480
59.150,57.0242,-0.000480
59.167,57.0136,-0.000480
59.189,56.9998,-0.000480
59.218,56.9823,-0.000480
59.249,56.9642,-0.000480
59.265,56.9555,-0.000480
59.280,56.9471,-0.000405
59.310,56.9310,-0.000405
59.327,56.9224,-0.000405
59.355,56.9084,-0.000405
59.371,56.9005,-0.000405
59.387,56.8931,-0.000405
59.403,56.8855,-0.000405
59.425,56.8759,-0.000405
59.450,56.8650,-0.000405
59.466,56.8584,-0.000405
59.483,56.8517,-0.000405
59.513,56.8403,-0.000301
59.531,56.8340,-0.000301
59.547,56.8280,-0.000301
59.563,56.8228,-0.000301
59.578,56.8179,-0.000301
59.594,56.8129,-0.000301
59.613,56.8072,-0.000301
59.636,56.8006,-0.000301
59.652,56.7964,-0.000301
59.683,56.7885,-0.000301
59.699,56.7846,-0.000301
59.714,56.7813,-0.000301
59.731,56.7777,-0.000301
59.761,56.7719,-0.000301
59.792,56.7666,-0.000292
59.823,56.7621,-0.000292
59.854,56.7582,-0.000292
59.876,56.7560,-0.000292
59.893,56.7545,-0.000292
59.908,56.7534,-0.000292
59.925,56.7523,-0.000292
59.940,56.7515,-0.000292
59.956,56.7508,-0.000292
59.972,56.7504,-0.000292
59.988,56.7500,-0.000292
60.004,56.7500,-0.000264
60.020,56.7500,-0.000264
60.037,56.7500,-0.000264
60.052,56.7500,-0.000264
60.068,56.7500,-0.000264
60.085,56.7500,-0.000264
60.100,56.7500,-0.000264
60.116,56.7500,-0.000264
60.133,56.7500,-0.000264
60.148,56.7500,-0.000264
60.165,56.7501,-0.000264
60.181,56.7504,-0.000264
60.196,56.7508,-0.000264
60.213,56.7514,-0.000264
60.229,56.7523,-0.000264
60.244,56.7532,-0.000264
60.260,56.7545,-0.000132
60.276,56.7560,-0.000132
60.293,56.7576,-0.000132
60.309,56.7593,-0.000132
60.324,56.7613,-0.000132
60.340,56.7634,-0.000132
60.357,56.7659,-0.000132
60.373,56.7685,-0.000132
60.388,56.7712,-0.000132
60.412,56.7758,-0.000132
60.428,56.7789,-0.000132
60.443,56.7821,-0.000132
60.459,56.7859,-0.000132
60.475,56.7896,-0.000132
60.491,56.7938,-0.000132
60.507,56.7979,-0.000273
60.523,56.8024,-0.000273
60.539,56.8071,-0.000273
60.555,56.8118,-0.000273
60.571,56.8167,-0.000273
60.587,56.8220,-0.000273
60.603,56.8270,-0.000273
60.619,56.8329,-0.000273
60.635,56.8386,-0.000273
60.651,56.8444,-0.000273
60.667,56.8506,-0.000273
60.684,56.8572,-0.000273
60.706,56.8666,-0.000273
60.737,56.8798,-0.000273
60.753,56.8868,-0.000405
60.769,56.8945,-0.000405
60.784,56.9015,-0.000405
60.800,56.9090,-0.000405
60.816,56.9173,-0.000405
60.831,56.9253,-0.000405
60.862,56.9411,-0.000405
60.893,56.9581,-0.000405
60.924,56.9760,-0.000405
60.955,56.9942,-0.000405
60.973,57.0054,-0.000405
61.002,57.0237,-0.000329
61.019,57.0348,-0.000329
61.035,57.0454,-0.000329
61.051,57.0561,-0.000329
61.067,57.0675,-0.000329
61.084,57.0791,-0.000329
61.099,57.0900,-0.000329
61.116,57.1018,-0.000329
61.131,57.1132,-0.000329
61.148,57.1259,-0.000329
61.165,57.1386,-0.000329
61.181,57.1519,-0.000329
61.202,57.1672,-0.000329
61.217,57.1798,-0.000329
61.233,57.1923,-0.000329
61.248,57.2054,-0.000377
61.279,57.2312,-0.000377
61.310,57.2585,-0.000377
61.341,57.2852,-0.000377
61.357,57.2999,-0.000377
61.387,57.3283,-0.000377
61.409,57.3488,-0.000377
61.433,57.3714,-0.000377
61.451,57.3891,-0.000377
61.467,57.4045,-0.000377
61.488,57.4261,-0.000377
61.504,57.4418,-0.000377
61.520,57.4588,-0.000405
61.536,57.4753,-0.000405
61.552,57.4926,-0.000405
61.568,57.5089,-0.000405
61.584,57.5265,-0.000405
61.600,57.5440,-0.000405
61.616,57.5614,-0.000405
61.632,57.5795,-0.000405
61.647,57.5970,-0.000405
61.665,57.6168,-0.000405
61.686,57.6415,-0.000405
61.712,57.6725,-0.000405
61.729,57.6915,-0.000405
61.759,57.7282,-0.000471
61.776,57.7485,-0.000471
61.793,57.7700,-0.000471
61.820,57.8042,-0.000471
61.840,57.8283,-0.000471
61.857,57.8510,-0.000471
61.882,57.8838,-0.000471
61.904,57.9116,-0.000471
61.920,57.9341,-0.000471
61.936,57.9548,-0.000471
61.951,57.9760,-0.000471
61.968,57.9984,-0.000471
61.984,58.0216,-0.000471
62.000,58.0431,-0.000471
62.015,58.0665,-0.000471
62.039,58.0979,-0.000593
62.054,58.1206,-0.000593
62.071,58.1440,-0.000593
62.087,58.1674,-0.000593
62.103,58.1914,-0.000593
62.118,58.2142,-0.000593
62.135,58.2393,-0.000593
62.151,58.2627,-0.000593
62.167,58.2873,-0.000593
62.182,58.3109,-0.000593
62.198,58.3354,-0.000593
62.214,58.3605,-0.000593
62.230,58.3859,-0.000593
62.247,58.4114,-0.000593
62.262,58.4361,-0.000621
62.279,58.4623,-0.000621
62.294,58.4881,-0.000621
62.310,58.5136,-0.000621
62.326,58.5401,-0.000621
62.342,58.5663,-0.000621
62.359,58.5940,-0.000621
62.374,58.6200,-0.000621
62.390,58.6472,-0.000621
62.407,58.6747,-0.000621
62.423,58.7025,-0.000621
62.439,58.7301,-0.000621
62.454,58.7568,-0.000621
62.471,58.7855,-0.000621
62.487,58.8139,-0.000621
62.503,58.8421,-0.000631
62.519,58.8707,-0.000631
62.535,58.8992,-0.000631
62.551,58.9284,-0.000631
62.566,58.9579,-0.000631
62.594,59.0074,-0.000631
62.610,59.0373,-0.000631
62.626,59.0665,-0.000631
62.641,59.0965,-0.000631
62.658,59.1289,-0.000631
62.688,59.1852,-0.000631
62.705,59.2188,-0.000631
62.722,59.2506,-0.000631
62.738,59.2811,-0.000631
62.753,59.3121,-0.000631
62.769,59.3432,-0.000631
62.787,59.3791,-0.000631
62.812,59.4305,-0.000631
62.833,59.4722,-0.000631
62.850,59.5062,-0.000631
62.866,59.5382,-0.000631
62.881,59.5699,-0.000631
62.897,59.6036,-0.000631
62.914,59.6379,-0.000631
62.930,59.6708,-0.000631
62.945,59.7035,-0.000631
62.962,59.7406,-0.000631
62.982,59.7831,-0.000631
62.998,59.8174,-0.000631
63.029,59.8814,-0.000744
63.061,59.9488,-0.000744
63.077,59.9801,-0.000744
63.093,60.0117,-0.000744
63.116,60.0607,-0.000744
63.132,60.0927,-0.000744
63.148,60.1237,-0.000744
63.165,60.1579,-0.000744
63.185,60.1968,-0.000744
63.216,60.2572,-0.000744
63.232,60.2892,-0.000744
63.262,60.3482,-0.000753
63.293,60.4056,-0.000753
63.324,60.4624,-0.000753
63.340,60.4924,-0.000753
63.356,60.5219,-0.000753
63.372,60.5512,-0.000753
63.389,60.5821,-0.000753
63.406,60.6142,-0.000753
63.424,60.6451,-0.000753
63.449,60.6889,-0.000753
63.468,60.7237,-0.000753
63.484,60.7510,-0.000753
63.500,60.7781,-0.000650
63.516,60.8063,-0.000650
63.532,60.8344,-0.000650
63.548,60.8604,-0.000650
63.564,60.8874,-0.000650
63.580,60.9140,-0.000650
63.596,60.9418,-0.000650
63.612,60.9683,-0.000650
63.628,60.9955,-0.000650
63.651,61.0307,-0.000650
63.667,61.0574,-0.000650
63.683,61.0815,-0.000650
63.700,61.1090,-0.000650
63.715,61.1339,-0.000650
63.731,61.1569,-0.000650
63.747,61.1824,-0.000678
63.763,61.2064,-0.000678
63.783,61.2371,-0.000678
63.805,61.2713,-0.000678
63.827,61.3029,-0.000678
63.843,61.3266,-0.000678
63.859,61.3498,-0.000678
63.875,61.3732,-0.000678
63.891,61.3959,-0.000678
63.907,61.4193,-0.000678
63.923,61.4411,-0.000678
63.939,61.4637,-0.000678
63.955,61.4857,-0.000678
63.971,61.5086,-0.000678
63.987,61.5298,-0.000687
64.003,61.5513,-0.000687
64.019,61.5729,-0.000687
64.035,61.5945,-0.000687
64.051,61.6152,-0.000687
64.067,61.6368,-0.000687
64.091,61.6680,-0.000687
64.114,61.6962,-0.000687
64.131,61.7175,-0.000687
64.147,61.7376,-0.000687
64.163,61.7571,-0.000687
64.179,61.7767,-0.000687
64.205,61.8089,-0.000687
64.224,61.8315,-0.000687
64.253,61.8657,-0.000668
64.269,61.8831,-0.000668
64.285,61.9015,-0.000668
64.301,61.9192,-0.000668
64.317,61.9373,-0.000668
64.335,61.9571,-0.000668
64.363,61.9872,-0.000668
64.381,62.0068,-0.000668
64.397,62.0242,-0.000668
64.413,62.0401,-0.000668
64.429,62.0564,-0.000668
64.445,62.0725,-0.000668
64.463,62.0910,-0.000668
64.488,62.1158,-0.000612
64.509,62.1359,-0.000612
64.526,62.1530,-0.000612
64.550,62.1749,-0.000612
64.565,62.1898,-0.000612
64.596,62.2169,-0.000612
64.627,62.2453,-0.000612
64.643,62.2595,-0.000612
64.674,62.2852,-0.000612
64.705,62.3114,-0.000612
64.728,62.3292,-0.000612
64.744,62.3421,-0.000612
64.760,62.3544,-0.000593
64.776,62.3668,-0.000593
64.792,62.3788,-0.000593
64.807,62.3902,-0.000593
64.824,62.4021,-0.000593
64.839,62.4137,-0.000593
64.856,62.4252,-0.000593
64.872,62.4361,-0.000593
64.887,62.4468,-0.000593
64.903,62.4577,-0.000593
64.920,62.4686,-0.000593
64.936,62.4789,-0.000593
64.953,62.4900,-0.000593
64.983,62.5081,-0.000631
64.999,62.5181,-0.000631
65.016,62.5279,-0.000631
65.032,62.5368,-0.000631
65.047,62.5456,-0.000631
65.064,62.5543,-0.000631
65.083,62.5646,-0.000631
65.106,62.5770,-0.000631
65.122,62.5848,-0.000631
65.138,62.5929,-0.000631
65.160,62.6037,-0.000631
65.175,62.6105,-0.000631
65.191,62.6178,-0.000631
65.209,62.6255,-0.000631
65.231,62.6349,-0.000631
65.262,62.6476,-0.000659
65.278,62.6538,-0.000659
65.308,62.6650,-0.000659
65.339,62.6759,-0.000659
65.354,62.6807,-0.000659
65.370,62.6858,-0.000659
65.386,62.6906,-0.000659
65.417,62.6996,-0.000659
65.448,62.7077,-0.000659
65.464,62.7117,-0.000659
65.479,62.7152,-0.000659
65.496,62.7189,-0.000659
65.511,62.7221,-0.000659
65.527,62.7255,-0.000640
65.544,62.7285,-0.000640
65.559,62.7312,-0.000640
65.575,62.7338,-0.000640
65.592,62.7363,-0.000640
65.607,62.7384,-0.000640
65.629,62.7411,-0.000640
65.651,62.7435,-0.000640
65.672,62.7454,-0.000640
65.688,62.7467,-0.000640
65.704,62.7477,-0.000640
65.720,62.7485,-0.000640
65.743,62.7494,-0.000640
65.773,62.7500,-0.000640
65.789,62.7500,-0.000640
65.809,62.7500,-0.000668
65.826,62.7500,-0.000668
65.842,62.7500,-0.000668
65.857,62.7500,-0.000668
65.874,62.7500,-0.000668
65.889,62.7500,-0.000668
65.905,62.7500,-0.000668
65.921,62.7500,-0.000668
65.938,62.7500,-0.000668
65.953,62.7500,-0.000668
65.969,62.7500,-0.000668
65.986,62.7500,-0.000668
66.001,62.7500,-0.000668
66.018,62.7500,-0.000791
66.033,62.7500,-0.000791
66.049,62.7500,-0.000791
66.065,62.7500,-0.000791
66.083,62.7500,-0.000791
66.113,62.7500,-0.000791
66.129,62.7500,-0.000791
66.145,62.7500,-0.000791
66.161,62.7500,-0.000791
66.177,62.7500,-0.000791
66.194,62.7500,-0.000791
66.209,62.7500,-0.000791
66.225,62.7500,-0.000791
66.247,62.7500,-0.000791
66.269,62.7500,-0.000791
66.290,62.7500,-0.000791
66.305,62.7500,-0.000847
66.322,62.7500,-0.000847
66.345,62.7500,-0.000847
66.361,62.7500,-0.000847
66.377,62.7500,-0.000847
66.394,62.7500,-0.000847
66.410,62.7500,-0.000847
66.436,62.7500,-0.000847
66.457,62.7500,-0.000847
66.473,62.7500,-0.000847
66.489,62.7500,-0.000838
66.505,62.7500,-0.000838
66.521,62.7500,-0.000838
66.537,62.7500,-0.000838
66.553,62.7500,-0.000838
66.569,62.7500,-0.000838
66.585,62.7500,-0.000838
66.601,62.7500,-0.000838
66.617,62.7500,-0.000838
66.633,62.7500,-0.000838
66.649,62.7500,-0.000838
66.665,62.7500,-0.000838
66.681,62.7500,-0.000838
66.697,62.7500,-0.000838
66.713,62.7500,-0.000838
66.729,62.7500,-0.000838
66.747,62.7500,-0.000847
66.778,62.7500,-0.000847
66.793,62.7500,-0.000847
66.810,62.7500,-0.000847
66.839,62.7500,-0.000847
66.868,62.7500,-0.000847
66.884,62.7500,-0.000847
66.900,62.7500,-0.000847
66.916,62.7500,-0.000847
66.933,62.7500,-0.000847
66.962,62.7500,-0.000847
66.980,62.7500,-0.000847
66.996,62.7500,-0.000847
67.012,62.7500,-0.000847
67.028,62.7500,-0.000857
67.044,62.7500,-0.000857
67.060,62.7500,-0.000857
67.076,62.7500,-0.000857
67.092,62.7500,-0.000857
67.108,62.7500,-0.000857
67.125,62.7500,-0.000857
67.140,62.7500,-0.000857
67.156,62.7500,-0.000857
67.172,62.7500,-0.000857
67.188,62.7500,-0.000857
67.204,62.7500,-0.000857
67.220,62.7500,-0.000857
67.236,62.7500,-0.000857
67.252,62.7500,-0.000857
67.268,62.7500,-0.000819
67.284,62.7500,-0.000819
67.300,62.7500,-0.000819
67.316,62.7500,-0.000819
67.332,62.7500,-0.000819
67.348,62.7500,-0.000819
67.365,62.7500,-0.000819
67.380,62.7500,-0.000819
67.396,62.7500,-0.000819
67.424,62.7500,-0.000819
67.440,62.7500,-0.000819
67.456,62.7500,-0.000819
67.472,62.7500,-0.000819
67.490,62.7500,-0.000819
67.519,62.7500,-0.000800
67.536,62.7500,-0.000800
67.558,62.7500,-0.000800
67.580,62.7500,-0.000800
67.600,62.7500,-0.000800
67.616,62.7500,-0.000800
67.632,62.7500,-0.000800
67.648,62.7500,-0.000800
67.664,62.7500,-0.000800
67.680,62.7500,-0.000800
67.696,62.7500,-0.000800
67.712,62.7500,-0.000800
67.728,62.7500,-0.000800
67.749,62.7500,-0.000800
67.765,62.7500,-0.000800
67.781,62.7500,-0.000857
67.812,62.7500,-0.000857
67.827,62.7500,-0.000857
67.844,62.7500,-0.000857
67.874,62.7500,-0.000857
67.905,62.7500,-0.000857
67.922,62.7500,-0.000857
67.951,62.7500,-0.000857
67.982,62.7500,-0.000857
67.999,62.7500,-0.000857
68.028,62.7500,-0.000791
68.046,62.7500,-0.000791
68.061,62.7500,-0.000791
68.077,62.7500,-0.000791
68.094,62.7500,-0.000791
68.110,62.7500,-0.000791
68.125,62.7500,-0.000791
68.142,62.7500,-0.000791
68.157,62.7500,-0.000791
68.174,62.7500,-0.000791
68.190,62.7500,-0.000791
68.205,62.7500,-0.000791
68.221,62.7500,-0.000791
68.237,62.7500,-0.000791
68.254,62.7500,-0.000791
68.277,62.7500,-0.000762
68.309,62.7500,-0.000762
68.339,62.7500,-0.000762
68.355,62.7500,-0.000762
68.386,62.7500,-0.000762
68.416,62.7500,-0.000762
68.447,62.7500,-0.000762
68.463,62.7500,-0.000762
68.494,62.7500,-0.000762
68.509,62.7500,-0.000762
68.541,62.7500,-0.000819
68.570,62.7500,-0.000819
68.588,62.7500,-0.000819
68.603,62.7500,-0.000819
68.620,62.7500,-0.000819
68.635,62.7500,-0.000819
68.652,62.7500,-0.000819
68.667,62.7500,-0.000819
68.683,62.7500,-0.000819
68.700,62.7500,-0.000819
68.715,62.7500,-0.000819
68.734,62.7500,-0.000819
68.757,62.7500,-0.000819
68.788,62.7500,-0.000819
68.804,62.7500,-0.000819
68.819,62.7500,-0.000819
68.850,62.7500,-0.000819
68.866,62.7500,-0.000819
68.897,62.7500,-0.000819
68.913,62.7500,-0.000819
68.930,62.7500,-0.000819
68.959,62.7500,-0.000819
68.975,62.7500,-0.000819
68.991,62.7500,-0.000819
69.006,62.7500,-0.000810
69.022,62.7500,-0.000810
69.053,62.7500,-0.000810
69.083,62.7500,-0.000810
69.100,62.7500,-0.000810
69.117,62.7500,-0.000810
69.146,62.7500,-0.000810
69.164,62.7500,-0.000810
69.180,62.7500,-0.000810
69.195,62.7500,-0.000810
69.211,62.7500,-0.000810
69.227,62.7500,-0.000810
69.243,62.7500,-0.000810
69.260,62.7500,-0.000838
69.275,62.7500,-0.000838
69.291,62.7500,-0.000838
69.308,62.7500,-0.000838
69.323,62.7500,-0.000838
69.339,62.7500,-0.000838
69.355,62.7500,-0.000838
69.371,62.7500,-0.000838
69.387,62.7500,-0.000838
69.403,62.7500,-0.000838
69.419,62.7500,-0.000838
69.435,62.7500,-0.000838
69.451,62.7500,-0.000838
69.468,62.7500,-0.000838
69.483,62.7500,-0.000838
69.500,62.7500,-0.000847
69.515,62.7500,-0.000847
69.533,62.7500,-0.000847
69.561,62.7500,-0.000847
69.579,62.7500,-0.000847
69.595,62.7500,-0.000847
69.618,62.7500,-0.000847
69.634,62.7500,-0.000847
69.650,62.7500,-0.000847
69.666,62.7500,-0.000847
69.682,62.7500,-0.000847
69.698,62.7500,-0.000847
69.715,62.7500,-0.000847
69.730,62.7500,-0.000847
69.747,62.7500,-0.000838
69.777,62.7500,-0.000838
69.796,62.7500,-0.000838
69.823,62.7500,-0.000838
69.842,62.7500,-0.000838
69.858,62.7500,-0.000838
69.874,62.7500,-0.000838
69.890,62.7500,-0.000838
69.910,62.7500,-0.000838
69.933,62.7500,-0.000838
69.954,62.7500,-0.000838
69.970,62.7500,-0.000838
69.986,62.7500,-0.000838
70.002,62.7500,-0.000828
70.018,62.7500,-0.000828
70.034,62.7500,-0.000828
70.050,62.7500,-0.000828
70.066,62.7500,-0.000828
70.082,62.7500,-0.000828
70.099,62.7500,-0.000828
70.118,62.7500,-0.000828
70.143,62.7500,-0.000828
70.159,62.7500,-0.000828
70.175,62.7500,-0.000828
70.191,62.7500,-0.000828
70.206,62.7500,-0.000828
70.223,62.7500,-0.000828
70.239,62.7500,-0.000781
70.255,62.7500,-0.000781
70.271,62.7500,-0.000781
70.287,62.7500,-0.000781
70.303,62.7500,-0.000781
70.320,62.7500,-0.000781
70.348,62.7500,-0.000781
70.367,62.7500,-0.000781
70.383,62.7500,-0.000781
70.399,62.7500,-0.000781
70.415,62.7500,-0.000781
70.431,62.7500,-0.000781
70.447,62.7500,-0.000781
70.463,62.7500,-0.000781
70.479,62.7500,-0.000781
70.495,62.7500,-0.000781
70.511,62.7500,-0.000781
70.527,62.7500,-0.000819
70.544,62.7500,-0.000819
70.559,62.7500,-0.000819
70.575,62.7500,-0.000819
70.591,62.7500,-0.000819
70.607,62.7500,-0.000819
70.623,62.7500,-0.000819
70.639,62.7500,-0.000819
70.655,62.7500,-0.000819
70.671,62.7500,-0.000819
70.687,62.7500,-0.000819
70.703,62.7500,-0.000819
70.719,62.7500,-0.000819
70.736,62.7500,-0.000819
70.751,62.7500,-0.000819
70.767,62.7500,-0.000838
70.783,62.7500,-0.000838
70.802,62.7500,-0.000838
70.824,62.7500,-0.000838
70.855,62.7500,-0.000838
70.886,62.7500,-0.000838
70.917,62.7500,-0.000838
70.947,62.7500,-0.000838
70.963,62.7500,-0.000838
70.979,62.7500,-0.000838
70.995,62.7500,-0.000838
71.025,62.7500,-0.000819
71.041,62.7500,-0.000819
71.072,62.7500,-0.000819
71.104,62.7500,-0.000819
71.119,62.7500,-0.000819
71.135,62.7500,-0.000819
71.151,62.7500,-0.000819
71.178,62.7495,-0.000819
71.198,62.7488,-0.000819
71.214,62.7480,-0.000819
71.231,62.7471,-0.000828
71.246,62.7459,-0.000828
71.263,62.7446,-0.000828
71.278,62.7430,-0.000828
71.294,62.7413,-0.000828
71.311,62.7392,-0.000828
71.327,62.7371,-0.000828
71.343,62.7348,-0.000828
71.365,62.7313,-0.000828
71.395,62.7257,-0.000828
71.426,62.7196,-0.000828
71.456,62.7126,-0.000828
71.487,62.7049,-0.000066
71.503,62.7007,-0.000066
71.520,62.6962,-0.000066
71.549,62.6875,-0.000066
71.572,62.6801,-0.000066
71.600,62.6707,-0.000066
71.625,62.6618,-0.000066
71.646,62.6539,-0.000066
71.663,62.6476,-0.000066
71.679,62.6411,-0.000066
71.694,62.6348,-0.000066
71.711,62.6277,-0.000066
71.726,62.6204,-0.000066
71.749,62.6105,0.003426
71.765,62.6028,0.003426
71.781,62.5956,0.003426
71.797,62.5878,0.003426
71.814,62.5792,0.003426
71.829,62.5713,0.003426
71.845,62.5631,0.003426
71.861,62.5544,0.003426
71.877,62.5453,0.003426
71.893,62.5362,0.003426
71.909,62.5275,0.003426
71.925,62.5181,0.003426
71.942,62.5076,0.003426
71.964,62.4940,0.003426
71.980,62.4847,0.003426
72.010,62.4645,0.003426
72.041,62.4447,0.010458
72.071,62.4232,0.010458
72.101,62.4015,0.010458
72.124,62.3848,0.010458
72.148,62.3670,0.010458
72.165,62.3540,0.010458
72.181,62.3411,0.010458
72.197,62.3290,0.010458
72.213,62.3159,0.010458
72.229,62.3028,0.010458
72.245,62.2887,0.010458
72.261,62.2763,0.010458
72.278,62.2617,0.010458
72.303,62.2400,0.020493
72.319,62.2257,0.020493
72.335,62.2111,0.020493
72.352,62.1960,0.020493
72.369,62.1809,0.020493
72.398,62.1534,0.020493
72.415,62.1367,0.020493
72.431,62.1207,0.020493
72.447,62.1051,0.020493
72.463,62.0899,0.020493
72.479,62.0735,0.020493
72.496,62.0564,0.020493
72.522,62.0300,0.020493
72.552,61.9971,0.031129
72.567,61.9817,0.031129
72.598,61.9481,0.031129
72.629,61.9137,0.031129
72.660,61.8779,0.031129
72.691,61.8419,0.031129
72.722,61.8061,0.031129
72.753,61.7686,0.031129
72.782,61.7319,0.017810
72.802,61.7059,0.017810
72.827,61.6761,0.017810
72.843,61.6547,0.017810
72.859,61.6348,0.017810
72.875,61.6131,0.017810
72.891,61.5930,0.017810
72.907,61.5717,0.017810
72.925,61.5473,0.017810
72.953,61.5093,0.017810
72.971,61.4842,0.017810
72.987,61.4607,0.017810
73.003,61.4391,0.017810
73.020,61.4160,-0.000471
73.035,61.3942,-0.000471
73.051,61.3700,-0.000471
73.067,61.3479,-0.000471
73.083,61.3243,-0.000471
73.099,61.3004,-0.000471
73.116,61.2763,-0.000471
73.139,61.2413,-0.000471
73.171,61.1927,-0.000471
73.201,61.1462,-0.000471
73.216,61.1219,-0.000471
73.247,61.0725,-0.000546
73.263,61.0473,-0.000546
73.279,61.0220,-0.000546
73.295,60.9952,-0.000546
73.326,60.9447,-0.000546
73.350,60.9057,-0.000546
73.366,60.8789,-0.000546
73.382,60.8510,-0.000546
73.398,60.8248,-0.000546
73.414,60.7962,-0.000546
73.430,60.7689,-0.000546
73.446,60.7410,-0.000546
73.462,60.7139,-0.000546
73.478,60.6858,-0.000546
73.494,60.6576,-0.000650
73.510,60.6281,-0.000650
73.526,60.5996,-0.000650
73.542,60.5709,-0.000650
73.558,60.5408,-0.000650
73.573,60.5130,-0.000650
73.594,60.4746,-0.000650
73.613,60.4376,-0.000650
73.636,60.3971,-0.000650
73.653,60.3630,-0.000650
73.671,60.3301,-0.000650
73.699,60.2773,-0.000650
73.718,60.2383,-0.000650
73.733,60.2088,-0.000650
73.749,60.1772,-0.000678
73.766,60.1457,-0.000678
73.786,60.1044,-0.000678
73.808,60.0592,-0.000678
73.829,60.0168,-0.000678
73.846,59.9829,-0.000678
73.862,59.9506,-0.000678
73.878,59.9177,-0.000678
73.903,59.8661,-0.000678
73.918,59.8320,-0.000678
73.935,59.7986,-0.000678
73.951,59.7654,-0.000678
73.967,59.7289,-0.000678
73.983,59.6968,-0.000678
73.999,59.6625,-0.000640
74.015,59.6285,-0.000640
74.031,59.5946,-0.000640
74.047,59.5610,-0.000640
74.063,59.5268,-0.000640
74.079,59.4937,-0.000640
74.095,59.4624,-0.000640
74.111,59.4303,-0.000640
74.126,59.3984,-0.000640
74.142,59.3662,-0.000640
74.161,59.3275,-0.000640
74.180,59.2908,-0.000640
74.211,59.2304,-0.000640
74.242,59.1689,-0.000706
74.274,59.1083,-0.000706
74.304,59.0514,-0.000706
74.320,59.0215,-0.000706
74.351,58.9643,-0.000706
74.367,58.9342,-0.000706
74.382,58.9059,-0.000706
74.398,58.8767,-0.000706
74.414,58.8479,-0.000706
74.431,58.8175,-0.000706
74.456,58.7728,-0.000706
74.472,58.7444,-0.000706
74.488,58.7160,-0.000706
74.504,58.6881,-0.000706
74.521,58.6600,-0.000706
74.537,58.6325,-0.000706
74.553,58.6059,-0.000706
74.568,58.5791,-0.000706
74.585,58.5511,-0.000706
74.600,58.5254,-0.000706
74.616,58.4991,-0.000706
74.633,58.4722,-0.000706
74.649,58.4455,-0.000706
74.665,58.4202,-0.000706
74.681,58.3943,-0.000706
74.697,58.3690,-0.000706
74.713,58.3429,-0.000706
74.729,58.3187,-0.000706
74.744,58.2944,-0.000668
74.760,58.2688,-0.000668
74.777,58.2441,-0.000668
74.792,58.2204,-0.000668
74.808,58.1960,-0.000668
74.824,58.1722,-0.000668
74.841,58.1475,-0.000668
74.856,58.1243,-0.000668
74.872,58.1010,-0.000668
74.888,58.0777,-0.000668
74.905,58.0539,-0.000668
74.920,58.0317,-0.000668
74.936,58.0099,-0.000668
74.954,57.9857,-0.000668
74.983,57.9446,-0.000668
75.012,57.9048,-0.000612
75.029,57.8830,-0.000612
75.044,57.8625,-0.000612
75.060,57.8407,-0.000612
75.077,57.8185,-0.000612
75.107,57.7803,-0.000612
75.124,57.7586,-0.000612
75.140,57.7382,-0.000612
75.156,57.7184,-0.000612
75.172,57.6989,-0.000612
75.188,57.6782,-0.000612
75.204,57.6596,-0.000612
75.220,57.6406,-0.000612
75.237,57.6205,-0.000574
75.262,57.5912,-0.000574
75.278,57.5730,-0.000574
75.294,57.5542,-0.000574
75.316,57.5291,-0.000574
75.332,57.5113,-0.000574
75.349,57.4930,-0.000574
75.371,57.4692,-0.000574
75.387,57.4522,-0.000574
75.403,57.4353,-0.000574
75.419,57.4184,-0.000574
75.449,57.3873,-0.000574
75.465,57.3708,-0.000574
75.495,57.3407,-0.000499
75.511,57.3251,-0.000499
75.535,57.3024,-0.000499
75.552,57.2863,-0.000499
75.567,57.2722,-0.000499
75.583,57.2567,-0.000499
75.599,57.2420,-0.000499
75.615,57.2286,-0.000499
75.631,57.2140,-0.000499
75.647,57.2002,-0.000499
75.663,57.1862,-0.000499
75.679,57.1726,-0.000499
75.695,57.1586,-0.000499
75.711,57.1457,-0.000499
75.727,57.1330,-0.000499
75.743,57.1196,-0.000405
75.761,57.1050,-0.000405
75.788,57.0846,-0.000405
75.808,57.0699,-0.000405
75.823,57.0583,-0.000405
75.839,57.0468,-0.000405
75.856,57.0348,-0.000405
75.881,57.0170,-0.000405
75.912,56.9960,-0.000405
75.928,56.9855,-0.000405
75.943,56.9757,-0.000405
75.974,56.9558,-0.000405
76.004,56.9371,-0.000405
76.020,56.9279,-0.000367
76.051,56.9106,-0.000367
76.067,56.9017,-0.000367
76.083,56.8929,-0.000367
76.113,56.8768,-0.000367
76.144,56.8610,-0.000367
76.160,56.8532,-0.000367
76.191,56.8387,-0.000367
76.207,56.8318,-0.000367
76.223,56.8247,-0.000367
76.239,56.8176,-0.000367
76.255,56.8109,-0.000367
76.271,56.8045,-0.000311
76.287,56.7981,-0.000311
76.304,56.7921,-0.000311
76.331,56.7821,-0.000311
76.355,56.7737,-0.000311
76.379,56.7659,-0.000311
76.399,56.7597,-0.000311
76.415,56.7552,-0.000311
76.431,56.7505,-0.000311
76.446,56.7464,-0.000311
76.463,56.7420,-0.000311
76.488,56.7360,-0.000311
76.517,56.7296,-0.000301
76.547,56.7235,-0.000301
76.578,56.7180,-0.000301
76.595,56.7153,-0.000301
76.624,56.7113,-0.000301
76.640,56.7093,-0.000301
76.671,56.7060,-0.000301
76.687,56.7045,-0.000301
76.703,56.7034,-0.000301
76.720,56.7023,-0.000301
76.735,56.7014,-0.000301
76.751,56.7008,-0.000292
76.766,56.7004,-0.000292
76.783,56.7002,-0.000292
76.798,56.7000,-0.000292
76.816,56.7000,-0.000292
76.840,56.7000,-0.000292
76.871,56.7000,-0.000292
76.886,56.7000,-0.000292
76.902,56.7000,-0.000292
76.932,56.7000,-0.000292
76.963,56.7002,-0.000292
76.979,56.7005,-0.000292
76.995,56.7010,-0.000198
77.026,56.7026,-0.000198
77.057,56.7049,-0.000198
77.088,56.7080,-0.000198
77.104,56.7097,-0.000198
77.135,56.7137,-0.000198
77.150,56.7160,-0.000198
77.167,56.7188,-0.000198
77.183,56.7215,-0.000198
77.199,56.7246,-0.000198
77.215,56.7278,-0.000198
77.230,56.7309,-0.000198
77.246,56.7345,-0.000282
77.263,56.7385,-0.000282
77.278,56.7423,-0.000282
77.294,56.7463,-0.000282
77.311,56.7508,-0.000282
77.326,56.7552,-0.000282
77.343,56.7603,-0.000282
77.359,56.7652,-0.000282
77.375,56.7701,-0.000282
77.390,56.7753,-0.000282
77.407,56.7810,-0.000282
77.423,56.7866,-0.000282
77.438,56.7923,-0.000282
77.454,56.7984,-0.000282
77.471,56.8048,-0.000282
77.486,56.8112,-0.000367
77.502,56.8179,-0.000367
77.518,56.8247,-0.000367
77.534,56.8318,-0.000367
77.550,56.8388,-0.000367
77.566,56.8464,-0.000367
77.582,56.8543,-0.000367
77.599,56.8621,-0.000367
77.615,56.8700,-0.000367
77.630,56.8779,-0.000367
77.646,56.8867,-0.000367
77.668,56.8985,-0.000367
77.684,56.9072,-0.000367
77.700,56.9161,-0.000367
77.716,56.9256,-0.000367
77.732,56.9351,-0.000367
77.748,56.9446,-0.000301
77.764,56.9544,-0.000301
77.780,56.9646,-0.000301
77.797,56.9749,-0.000301
77.812,56.9850,-0.000301
77.828,56.9955,-0.000301
77.845,57.0074,-0.000301
77.862,57.0188,-0.000301
77.878,57.0298,-0.000301
77.908,57.0518,-0.000301
77.927,57.0652,-0.000301
77.954,57.0858,-0.000301
77.974,57.1009,-0.000301
78.001,57.1226,-0.000320
78.020,57.1378,-0.000320
78.036,57.1514,-0.000320
78.052,57.1649,-0.000320
78.068,57.1777,-0.000320
78.085,57.1928,-0.000320
78.101,57.2062,-0.000320
78.116,57.2198,-0.000320
78.132,57.2340,-0.000320
78.148,57.2481,-0.000320
78.164,57.2632,-0.000320
78.180,57.2781,-0.000320
78.196,57.2940,-0.000320
78.219,57.3150,-0.000320
78.235,57.3305,-0.000320
78.251,57.3461,-0.000405
78.267,57.3623,-0.000405
78.285,57.3802,-0.000405
78.312,57.4086,-0.000405
78.331,57.4281,-0.000405
78.347,57.4449,-0.000405
78.363,57.4617,-0.000405
78.379,57.4794,-0.000405
78.395,57.4961,-0.000405
78.414,57.5185,-0.000405
78.436,57.5424,-0.000405
78.451,57.5592,-0.000405
78.482,57.5955,-0.000405
78.512,57.6305,-0.000461
78.528,57.6498,-0.000461
78.559,57.6874,-0.000461
78.575,57.7061,-0.000461
78.606,57.7458,-0.000461
78.621,57.7647,-0.000461
78.652,57.8039,-0.000461
78.667,57.8237,-0.000461
78.683,57.8445,-0.000461
78.699,57.8655,-0.000461
78.715,57.8874,-0.000461
78.731,57.9077,-0.000461
78.747,57.9294,-0.000461
78.775,57.9684,-0.000489
78.792,57.9913,-0.000489
78.807,58.0135,-0.000489
78.823,58.0359,-0.000489
78.839,58.0587,-0.000489
78.855,58.0822,-0.000489
78.871,58.1046,-0.000489
78.887,58.1278,-0.000489
78.903,58.1525,-0.000489
78.919,58.1755,-0.000489
78.935,58.2007,-0.000489
78.951,58.2234,-0.000489
78.967,58.2486,-0.000489
78.983,58.2728,-0.000489
78.999,58.2985,-0.000602
79.015,58.3220,-0.000602
79.033,58.3512,-0.000602
79.053,58.3832,-0.000602
79.068,58.4071,-0.000602
79.098,58.4567,-0.000602
79.114,58.4814,-0.000602
79.129,58.5066,-0.000602
79.160,58.5575,-0.000602
79.175,58.5835,-0.000602
79.191,58.6099,-0.000602
79.207,58.6383,-0.000602
79.223,58.6642,-0.000602
79.239,58.6925,-0.000602
79.255,58.7200,-0.000602
79.271,58.7492,-0.000602
79.286,58.7764,-0.000602
79.302,58.8047,-0.000602
79.328,58.8507,-0.000602
79.343,58.8786,-0.000602
79.360,58.9078,-0.000602
79.376,58.9377,-0.000602
79.392,58.9679,-0.000602
79.408,58.9970,-0.000602
79.424,59.0267,-0.000602
79.440,59.0570,-0.000602
79.456,59.0890,-0.000602
79.471,59.1169,-0.000602
79.488,59.1495,-0.000650
79.504,59.1787,-0.000650
79.520,59.2109,-0.000650
79.535,59.2418,-0.000650
79.551,59.2725,-0.000650
79.568,59.3042,-0.000650
79.584,59.3367,-0.000650
79.600,59.3688,-0.000650
79.615,59.4000,-0.000650
79.632,59.4336,-0.000650
79.648,59.4671,-0.000650
79.664,59.4985,-0.000650
79.679,59.5309,-0.000650
79.696,59.5652,-0.000650
79.712,59.5992,-0.000650
79.727,59.6312,-0.000650
79.744,59.6661,-0.000857
79.760,59.7000,-0.000857
79.776,59.7346,-0.000857
79.791,59.7670,-0.000857
79.808,59.8012,-0.000857
79.823,59.8339,-0.000857
79.840,59.8690,-0.000857
79.856,59.9016,-0.000857
79.886,59.9650,-0.000857
79.903,59.9965,-0.000857
79.918,60.0281,-0.000857
79.934,60.0603,-0.000857
79.950,60.0925,-0.000857
79.967,60.1247,-0.000857
79.982,60.1555,-0.000819
79.998,60.1868,-0.000819
80.014,60.2192,-0.000819
80.030,60.2486,-0.000819
80.046,60.2795,-0.000819
80.062,60.3114,-0.000819
80.079,60.3414,-0.000819
80.095,60.3713,-0.000819
80.110,60.4003,-0.000819
80.126,60.4303,-0.000819
80.143,60.4614,-0.000819
80.158,60.4890,-0.000819
80.174,60.5184,-0.000819
80.190,60.5474,-0.000819
80.207,60.5774,-0.000819
80.222,60.6045,-0.000819
80.238,60.6342,-0.000650
80.255,60.6618,-0.000650
80.271,60.6911,-0.000650
80.301,60.7423,-0.000650
80.319,60.7732,-0.000650
80.335,60.8000,-0.000650
80.350,60.8263,-0.000650
80.367,60.8546,-0.000650
80.383,60.8804,-0.000650
80.398,60.9063,-0.000650
80.424,60.9496,-0.000650
80.441,60.9755,-0.000650
80.457,61.0013,-0.000650
80.472,61.0262,-0.000650
80.488,61.0515,-0.000650
80.505,61.0772,-0.000650
80.520,61.1019,-0.000687
80.536,61.1266,-0.000687
80.552,61.1516,-0.000687
80.568,61.1765,-0.000687
80.584,61.2010,-0.000687
80.600,61.2240,-0.000687
80.617,61.2489,-0.000687
80.639,61.2812,-0.000687
80.655,61.3057,-0.000687
80.670,61.3264,-0.000687
80.701,61.3709,-0.000687
80.731,61.4138,-0.000687
80.750,61.4389,-0.000687
80.777,61.4767,-0.000706
80.795,61.5010,-0.000706
80.824,61.5389,-0.000706
80.841,61.5615,-0.000706
80.858,61.5857,-0.000706
80.886,61.6201,-0.000706
80.904,61.6437,-0.000706
80.921,61.6641,-0.000706
80.936,61.6832,-0.000706
80.952,61.7028,-0.000706
80.977,61.7333,-0.000706
80.999,61.7606,-0.000706
81.023,61.7886,-0.000650
81.040,61.8083,-0.000650
81.056,61.8269,-0.000650
81.072,61.8448,-0.000650
81.089,61.8640,-0.000650
81.107,61.8841,-0.000650
81.132,61.9115,-0.000650
81.152,61.9337,-0.000650
81.168,61.9517,-0.000650
81.184,61.9681,-0.000650
81.200,61.9844,-0.000650
81.216,62.0007,-0.000650
81.232,62.0171,-0.000650
81.248,62.0335,-0.000650
81.264,62.0490,-0.000621
81.280,62.0662,-0.000621
81.304,62.0889,-0.000621
81.332,62.1163,-0.000621
81.348,62.1310,-0.000621
81.364,62.1452,-0.000621
81.380,62.1596,-0.000621
81.396,62.1746,-0.000621
81.412,62.1880,-0.000621
81.428,62.2022,-0.000621
81.458,62.2274,-0.000621
81.473,62.2403,-0.000621
81.497,62.2605,-0.000621
81.514,62.2740,-0.000621
81.530,62.2863,-0.000612
81.546,62.2995,-0.000612
81.562,62.3117,-0.000612
81.577,62.3233,-0.000612
81.594,62.3360,-0.000612
81.610,62.3472,-0.000612
81.626,62.3592,-0.000612
81.642,62.3703,-0.000612
81.658,62.3816,-0.000612
81.674,62.3927,-0.000612
81.690,62.4034,-0.000612
81.706,62.4139,-0.000612
81.723,62.4251,-0.000612
81.749,62.4415,-0.000612
81.770,62.4544,-0.000612
81.788,62.4651,-0.000612
81.810,62.4790,-0.000612
81.826,62.4875,-0.000612
81.842,62.4969,-0.000612
81.857,62.5050,-0.000612
81.873,62.5133,-0.000612
81.903,62.5296,-0.000612
81.919,62.5372,-0.000612
81.935,62.5448,-0.000612
81.950,62.5522,-0.000612
81.981,62.5664,-0.000612
81.996,62.5732,-0.000612
82.028,62.5868,-0.000659
82.043,62.5930,-0.000659
82.059,62.5993,-0.000659
82.075,62.6052,-0.000659
82.091,62.6119,-0.000659
82.121,62.6222,-0.000659
82.138,62.6276,-0.000659
82.154,62.6328,-0.000659
82.170,62.6379,-0.000659
82.185,62.6425,-0.000659
82.203,62.6476,-0.000659
82.223,62.6532,-0.000659
82.245,62.6589,-0.000659
82.266,62.6641,-0.000650
82.291,62.6695,-0.000650
82.323,62.6760,-0.000650
82.354,62.6816,-0.000650
82.384,62.6863,-0.000650
82.401,62.6885,-0.000650
82.416,62.6904,-0.000650
82.447,62.6938,-0.000650
82.463,62.6953,-0.000650
82.493,62.6976,-0.000621
82.509,62.6984,-0.000621
82.525,62.6991,-0.000621
82.549,62.6998,-0.000621
82.565,62.7000,-0.000621
82.581,62.7000,-0.000621
82.596,62.7000,-0.000621
82.613,62.7000,-0.000621
82.628,62.7000,-0.000621
82.645,62.7000,-0.000621
82.661,62.7000,-0.000621
82.676,62.7000,-0.000621
82.692,62.7000,-0.000621
82.710,62.7000,-0.000621
82.740,62.7000,-0.000687
82.756,62.7000,-0.000687
82.773,62.7000,-0.000687
82.788,62.7000,-0.000687
82.804,62.7000,-0.000687
82.820,62.7000,-0.000687
82.839,62.7000,-0.000687
82.865,62.7000,-0.000687
82.885,62.7000,-0.000687
82.901,62.7000,-0.000687
82.917,62.7000,-0.000687
82.933,62.7000,-0.000687
82.949,62.7000,-0.000687
82.966,62.7000,-0.000687
82.990,62.7000,-0.000687
83.021,62.7000,-0.000762
83.038,62.7000,-0.000762
83.068,62.7000,-0.000762
83.099,62.7000,-0.000762
83.115,62.7000,-0.000762
83.131,62.7000,-0.000762
83.162,62.7000,-0.000762
83.193,62.7000,-0.000762
83.209,62.7000,-0.000762
83.240,62.7000,-0.000800
83.271,62.7000,-0.000800
83.286,62.7000,-0.000800
83.317,62.7000,-0.000800
83.332,62.7000,-0.000800
83.349,62.7000,-0.000800
83.364,62.7000,-0.000800
83.380,62.7000,-0.000800
83.397,62.7000,-0.000800
83.412,62.7000,-0.000800
83.429,62.7000,-0.000800
83.444,62.7000,-0.000800
83.462,62.7000,-0.000800
83.487,62.7000,-0.000838
83.508,62.7000,-0.000838
83.524,62.7000,-0.000838
83.540,62.7000,-0.000838
83.556,62.7000,-0.000838
83.572,62.7000,-0.000838
83.588,62.7000,-0.000838
83.604,62.7000,-0.000838
83.620,62.7000,-0.000838
83.642,62.7000,-0.000838
83.658,62.7000,-0.000838
83.674,62.7000,-0.000838
83.690,62.7000,-0.000838
83.706,62.7000,-0.000838
83.722,62.7000,-0.000838
83.738,62.7000,-0.000847
83.755,62.7000,-0.000847
83.778,62.7000,-0.000847
83.809,62.7000,-0.000847
83.824,62.7000,-0.000847
83.840,62.7000,-0.000847
83.871,62.7000,-0.000847
83.903,62.7000,-0.000847
83.934,62.7000,-0.000847
83.965,62.7000,-0.000847
83.996,62.7000,-0.000734
84.011,62.7000,-0.000734
84.042,62.7000,-0.000734
84.058,62.7000,-0.000734
84.075,62.7000,-0.000734
84.091,62.7000,-0.000734
84.119,62.7000,-0.000734
84.138,62.7000,-0.000734
84.154,62.7000,-0.000734
84.171,62.7000,-0.000734
84.195,62.7000,-0.000734
84.216,62.7000,-0.000734
84.244,62.7000,-0.000697
84.259,62.7000,-0.000697
84.275,62.7000,-0.000697
84.291,62.7000,-0.000697
84.308,62.7000,-0.000697
84.323,62.7000,-0.000697
84.339,62.7000,-0.000697
84.355,62.7000,-0.000697
84.371,62.7000,-0.000697
84.387,62.7000,-0.000697
84.403,62.7000,-0.000697
84.419,62.7000,-0.000697
84.439,62.7000,-0.000697
84.463,62.7000,-0.000697
84.483,62.7000,-0.000810
84.499,62.7000,-0.000810
84.515,62.7000,-0.000810
84.532,62.7000,-0.000810
84.552,62.7000,-0.000810
84.568,62.7000,-0.000810
84.583,62.7000,-0.000810
84.599,62.7000,-0.000810
84.629,62.7000,-0.000810
84.660,62.7000,-0.000810
84.676,62.7000,-0.000810
84.692,62.7000,-0.000810
84.707,62.7000,-0.000810
84.738,62.7000,-0.000810
84.754,62.7000,-0.000810
84.770,62.7000,-0.000810
84.786,62.7000,-0.000810
84.803,62.7000,-0.000810
84.829,62.7000,-0.000810
84.850,62.7000,-0.000810
84.865,62.7000,-0.000810
84.882,62.7000,-0.000810
84.898,62.7000,-0.000810
84.914,62.7000,-0.000810
84.929,62.7000,-0.000810
84.945,62.7000,-0.000810
84.961,62.7000,-0.000810
84.978,62.7000,-0.000810
84.994,62.7000,-0.000810
85.009,62.7000,-0.000734
85.025,62.7000,-0.000734
85.043,62.7000,-0.000734
85.058,62.7000,-0.000734
85.073,62.7000,-0.000734
85.089,62.7000,-0.000734
85.107,62.7000,-0.000734
85.137,62.7000,-0.000734
85.153,62.7000,-0.000734
85.170,62.7000,-0.000734
85.186,62.7000,-0.000734
85.201,62.7000,-0.000734
85.218,62.7000,-0.000734
85.233,62.7000,-0.000734
85.249,62.7000,-0.000734
85.265,62.7000,-0.000734
85.294,62.7000,-0.000810
85.309,62.7000,-0.000810
85.325,62.7000,-0.000810
85.341,62.7000,-0.000810
85.357,62.7000,-0.000810
85.374,62.7000,-0.000810
85.389,62.7000,-0.000810
85.406,62.7000,-0.000810
85.422,62.7000,-0.000810
85.437,62.7000,-0.000810
85.454,62.7000,-0.000810
85.469,62.7000,-0.000810
85.486,62.7000,-0.000810
85.501,62.7000,-0.000828
85.517,62.7000,-0.000828
85.533,62.7000,-0.000828
85.549,62.7000,-0.000828
85.566,62.7000,-0.000828
85.582,62.7000,-0.000828
85.613,62.7000,-0.000828
85.629,62.7000,-0.000828
85.645,62.7000,-0.000828
85.664,62.7000,-0.000828
85.690,62.7000,-0.000828
85.709,62.7000,-0.000828
85.725,62.7000,-0.000828
85.741,62.7000,-0.000828
85.758,62.7000,-0.000791
85.774,62.7000,-0.000791
85.790,62.7000,-0.000791
85.805,62.7000,-0.000791
85.822,62.7000,-0.000791
85.845,62.7000,-0.000791
85.861,62.7000,-0.000791
85.877,62.7000,-0.000791
85.893,62.7000,-0.000791
85.909,62.7000,-0.000791
85.926,62.7000,-0.000791
85.942,62.7000,-0.000791
85.957,62.7000,-0.000791
85.974,62.7000,-0.000791
85.989,62.7000,-0.000791
86.005,62.7000,-0.000838
86.021,62.7000,-0.000838
86.049,62.7000,-0.000838
86.069,62.7000,-0.000838
86.085,62.7000,-0.000838
86.101,62.7000,-0.000838
86.117,62.7000,-0.000838
86.134,62.7000,-0.000838
86.150,62.7000,-0.000838
86.165,62.7000,-0.000838
86.181,62.7000,-0.000838
86.197,62.7000,-0.000838
86.213,62.7000,-0.000838
86.229,62.7000,-0.000838
86.245,62.7000,-0.000847
86.265,62.7000,-0.000847
86.293,62.7000,-0.000847
86.309,62.7000,-0.000847
86.325,62.7000,-0.000847
86.341,62.7000,-0.000847
86.357,62.7000,-0.000847
86.384,62.7000,-0.000847
86.400,62.7000,-0.000847
86.416,62.7000,-0.000847
86.432,62.7000,-0.000847
86.448,62.7000,-0.000847
86.464,62.7000,-0.000847
86.480,62.7000,-0.000847
86.497,62.7000,-0.000800
86.512,62.7000,-0.000800
86.528,62.7000,-0.000800
86.544,62.7000,-0.000800
86.560,62.7000,-0.000800
86.576,62.7000,-0.000800
86.592,62.7000,-0.000800
86.608,62.7000,-0.000800
86.624,62.7000,-0.000800
86.640,62.7000,-0.000800
86.656,62.7000,-0.000800
86.672,62.7000,-0.000800
86.688,62.7000,-0.000800
86.704,62.7000,-0.000800
86.720,62.7000,-0.000800
86.736,62.7000,-0.000800
86.752,62.7000,-0.000800
86.768,62.7000,-0.000772
86.783,62.7000,-0.000772
86.801,62.7000,-0.000772
86.816,62.7000,-0.000772
86.831,62.7000,-0.000772
86.848,62.7000,-0.000772
86.864,62.7000,-0.000772
86.880,62.7000,-0.000772
86.897,62.7000,-0.000772
86.926,62.7000,-0.000772
86.942,62.7000,-0.000772
86.958,62.7000,-0.000772
86.974,62.7000,-0.000772
86.991,62.7000,-0.000772
87.006,62.7000,-0.000772
87.022,62.7000,-0.000772
87.038,62.7000,-0.000772
87.055,62.7000,-0.000772
87.070,62.7000,-0.000772
87.086,62.7000,-0.000772
87.102,62.7000,-0.000772
87.118,62.7000,-0.000772
87.134,62.7000,-0.000772
87.150,62.7000,-0.000772
87.166,62.7000,-0.000772
87.183,62.7000,-0.000772
87.198,62.7000,-0.000772
87.214,62.7000,-0.000772
87.230,62.7000,-0.000772
87.246,62.7000,-0.000772
87.262,62.7000,-0.000772
87.278,62.7000,-0.000772
87.294,62.7000,-0.000772
87.310,62.7000,-0.000772
87.326,62.7000,-0.000772
87.342,62.7000,-0.000772
87.358,62.7000,-0.000772
87.374,62.7000,-0.000772
87.391,62.7000,-0.000772
87.406,62.7000,-0.000772
87.423,62.7000,-0.000772
87.439,62.7000,-0.000772
87.454,62.7000,-0.000772
87.485,62.7000,-0.000772
87.500,62.7000,-0.000772
87.516,62.7000,-0.000772
87.532,62.7000,-0.000772
87.549,62.7000,-0.000772
87.564,62.7000,-0.000772
87.579,62.7000,-0.000772
87.596,62.7000,-0.000772
87.617,62.7000,-0.000772
87.639,62.7000,-0.000772
87.660,62.7000,-0.000772
87.676,62.7000,-0.000772
87.692,62.7000,-0.000772
87.707,62.7000,-0.000772
87.723,62.7000,-0.000772
87.741,62.7000,-0.000772
87.763,62.7000,-0.000772
87.778,62.7000,-0.000772
87.794,62.7000,-0.000772
87.810,62.7000,-0.000772
87.840,62.7000,-0.000772
87.855,62.6999,-0.000772
87.871,62.6997,-0.000772
87.887,62.6993,-0.000772
87.903,62.6986,-0.000772
87.934,62.6968,-0.000772
87.965,62.6942,-0.000772
87.995,62.6910,-0.000772
88.012,62.6891,-0.000772
88.040,62.6852,-0.000800
88.057,62.6824,-0.000800
88.073,62.6797,-0.000800
88.104,62.6740,-0.000800
88.120,62.6707,-0.000800
88.135,62.6673,-0.000800
88.151,62.6636,-0.000800
88.168,62.6597,-0.000800
88.184,62.6556,-0.000800
88.199,62.6516,-0.000800
88.216,62.6468,-0.000800
88.231,62.6424,-0.000800
88.248,62.6375,-0.000800
88.264,62.6326,0.000188
88.279,62.6275,0.000188
88.295,62.6218,0.000188
88.311,62.6165,0.000188
88.327,62.6106,0.000188
88.343,62.6047,0.000188
88.360,62.5983,0.000188
88.376,62.5918,0.000188
88.391,62.5857,0.000188
88.407,62.5789,0.000188
88.424,62.5716,0.000188
88.439,62.5647,0.000188
88.455,62.5573,0.000188
88.471,62.5499,0.000188
88.487,62.5419,0.000188
88.504,62.5341,0.003906
88.519,62.5260,0.003906
88.535,62.5177,0.003906
88.562,62.5037,0.003906
88.577,62.4950,0.003906
88.594,62.4860,0.003906
88.610,62.4764,0.003906
88.625,62.4675,0.003906
88.641,62.4576,0.003906
88.657,62.4483,0.003906
88.673,62.4379,0.003906
88.689,62.4281,0.003906
88.705,62.4174,0.003906
88.721,62.4072,0.003906
88.737,62.3961,0.003906
88.754,62.3850,0.010750
88.769,62.3740,0.010750
88.786,62.3620,0.010750
88.801,62.3514,0.010750
88.817,62.3396,0.010750
88.833,62.3276,0.010750
88.850,62.3150,0.010750
88.865,62.3033,0.010750
88.882,62.2905,0.010750
88.897,62.2780,0.010750
88.914,62.2647,0.010750
88.930,62.2513,0.010750
88.945,62.2387,0.010750
88.961,62.2253,0.010750
88.978,62.2115,0.010750
88.993,62.1976,0.010750
89.009,62.1834,0.020031
89.025,62.1698,0.020031
89.041,62.1550,0.020031
89.057,62.1403,0.020031
89.073,62.1248,0.020031
89.096,62.1035,0.020031
89.112,62.0887,0.020031
89.128,62.0734,0.020031
89.144,62.0575,0.020031
89.160,62.0410,0.020031
89.176,62.0257,0.020031
89.192,62.0097,0.020031
89.208,61.9922,0.020031
89.225,61.9749,0.020031
89.240,61.9588,0.020031
89.256,61.9428,0.029012
89.272,61.9255,0.029012
89.288,61.9074,0.029012
89.304,61.8901,0.029012
89.320,61.8728,0.029012
89.337,61.8531,0.029012
89.353,61.8357,0.029012
89.368,61.8180,0.029012
89.384,61.7996,0.029012
89.401,61.7792,0.029012
89.419,61.7577,0.029012
89.434,61.7392,0.029012
89.464,61.7028,0.029012
89.483,61.6786,0.029012
89.510,61.6450,0.016746
89.528,61.6228,0.016746
89.544,61.6029,0.016746
89.560,61.5817,0.016746
89.576,61.5610,0.016746
89.592,61.5393,0.016746
89.608,61.5188,0.016746
89.624,61.4974,0.016746
89.651,61.4601,0.016746
89.682,61.4185,0.016746
89.698,61.3953,0.016746
89.714,61.3724,0.016746
89.730,61.3496,0.016746
89.746,61.3272,0.000009
89.762,61.3035,0.000009
89.778,61.2794,0.000009
89.794,61.2570,0.000009
89.810,61.2336,0.000009
89.826,61.2097,0.000009
89.842,61.1852,0.000009
89.858,61.1614,0.000009
89.874,61.1369,0.000009
89.890,61.1122,0.000009
89.907,61.0853,0.000009
89.922,61.0598,0.000009
89.938,61.0369,0.000009
89.953,61.0113,0.000009
89.970,60.9849,0.000009
89.986,60.9596,0.000009
90.002,60.9341,-0.000659
90.017,60.9077,-0.000659
90.034,60.8812,-0.000659
90.050,60.8546,-0.000659
90.065,60.8279,-0.000659
90.082,60.7995,-0.000659
90.098,60.7725,-0.000659
90.114,60.7447,-0.000659
90.130,60.7183,-0.000659
90.146,60.6904,-0.000659
90.162,60.6617,-0.000659
90.178,60.6342,-0.000659
90.204,60.5864,-0.000659
90.221,60.5572,-0.000659
90.237,60.5275,-0.000697
90.252,60.4999,-0.000697
90.271,60.4651,-0.000697
90.289,60.4314,-0.000697
90.313,60.3864,-0.000697
90.333,60.3496,-0.000697
90.349,60.3205,-0.000697
90.364,60.2906,-0.000697
90.381,60.2586,-0.000697
90.397,60.2280,-0.000697
90.412,60.1979,-0.000697
90.428,60.1669,-0.000697
90.445,60.1345,-0.000697
90.461,60.1020,-0.000697
90.476,60.0719,-0.000697
90.492,60.0402,-0.000659
90.509,60.0074,-0.000659
90.524,59.9750,-0.000659
90.541,59.9418,-0.000659
90.557,59.9091,-0.000659
90.573,59.8760,-0.000659
90.589,59.8424,-0.000659
90.605,59.8097,-0.000659
90.620,59.7766,-0.000659
90.637,59.7402,-0.000659
90.652,59.7092,-0.000659
90.669,59.6736,-0.000659
90.685,59.6401,-0.000659
90.701,59.6057,-0.000659
90.716,59.5734,-0.000659
90.733,59.5388,-0.000659
90.757,59.4881,-0.000631
90.774,59.4537,-0.000631
90.790,59.4206,-0.000631
90.805,59.3894,-0.000631
90.825,59.3478,-0.000631
90.853,59.2934,-0.000631
90.870,59.2599,-0.000631
90.885,59.2281,-0.000631
90.902,59.1964,-0.000631
90.918,59.1653,-0.000631
90.933,59.1350,-0.000631
90.951,59.1001,-0.000631
90.976,59.0505,-0.000678
90.997,59.0120,-0.000678
91.013,58.9818,-0.000678
91.030,58.9511,-0.000678
91.045,58.9224,-0.000678
91.061,58.8929,-0.000678
91.078,58.8620,-0.000678
91.093,58.8340,-0.000678
91.109,58.8053,-0.000678
91.126,58.7758,-0.000678
91.142,58.7454,-0.000678
91.157,58.7195,-0.000678
91.173,58.6912,-0.000678
91.189,58.6633,-0.000678
91.205,58.6351,-0.000678
91.221,58.6075,-0.000678
91.237,58.5787,-0.000640
91.259,58.5435,-0.000640
91.284,58.5007,-0.000640
91.316,58.4473,-0.000640
91.332,58.4219,-0.000640
91.348,58.3963,-0.000640
91.363,58.3713,-0.000640
91.380,58.3438,-0.000640
91.396,58.3187,-0.000640
91.411,58.2944,-0.000640
91.427,58.2694,-0.000640
91.445,58.2409,-0.000640
91.470,58.2016,-0.000640
91.491,58.1705,-0.000602
91.508,58.1460,-0.000602
91.523,58.1226,-0.000602
91.539,58.0987,-0.000602
91.556,58.0742,-0.000602
91.571,58.0517,-0.000602
91.588,58.0272,-0.000602
91.604,58.0048,-0.000602
91.620,57.9817,-0.000602
91.635,57.9600,-0.000602
91.651,57.9372,-0.000602
91.667,57.9153,-0.000602
91.683,57.8928,-0.000602
91.699,57.8713,-0.000602
91.715,57.8499,-0.000602
91.732,57.8263,-0.000602
91.747,57.8072,-0.000602
91.763,57.7856,-0.000565
91.779,57.7654,-0.000565
91.799,57.7391,-0.000565
91.827,57.7036,-0.000565
91.843,57.6835,-0.000565
91.870,57.6493,-0.000565
91.888,57.6271,-0.000565
91.904,57.6085,-0.000565
91.935,57.5709,-0.000565
91.967,57.5348,-0.000565
91.982,57.5171,-0.000565
92.005,57.4893,-0.000471
92.021,57.4730,-0.000471
92.044,57.4472,-0.000471
92.061,57.4283,-0.000471
92.077,57.4109,-0.000471
92.094,57.3937,-0.000471
92.111,57.3754,-0.000471
92.137,57.3483,-0.000471
92.157,57.3283,-0.000471
92.174,57.3112,-0.000471
92.190,57.2954,-0.000471
92.214,57.2713,-0.000471
92.245,57.2413,-0.000471
92.276,57.2121,-0.000433
92.306,57.1853,-0.000433
92.337,57.1576,-0.000433
92.353,57.1438,-0.000433
92.368,57.1313,-0.000433
92.384,57.1176,-0.000433
92.399,57.1042,-0.000433
92.421,57.0870,-0.000433
92.438,57.0736,-0.000433
92.453,57.0612,-0.000433
92.469,57.0489,-0.000433
92.485,57.0364,-0.000433
92.501,57.0246,-0.000367
92.517,57.0127,-0.000367
92.533,57.0006,-0.000367
92.550,56.9886,-0.000367
92.569,56.9743,-0.000367
92.601,56.9527,-0.000367
92.631,56.9328,-0.000367
92.662,56.9129,-0.000367
92.678,56.9027,-0.000367
92.709,56.8842,-0.000367
92.727,56.8739,-0.000367
92.742,56.8651,-0.000367
92.757,56.8563,-0.000358
92.773,56.8476,-0.000358
92.790,56.8382,-0.000358
92.817,56.8246,-0.000358
92.837,56.8144,-0.000358
92.853,56.8063,-0.000358
92.869,56.7989,-0.000358
92.885,56.7912,-0.000358
92.902,56.7834,-0.000358
92.917,56.7767,-0.000358
92.933,56.7699,-0.000358
92.948,56.7628,-0.000358
92.973,56.7534,-0.000358
93.001,56.7427,-0.000311
93.020,56.7356,-0.000311
93.036,56.7299,-0.000311
93.052,56.7246,-0.000311
93.068,56.7193,-0.000311
93.084,56.7142,-0.000311
93.100,56.7093,-0.000311
93.116,56.7048,-0.000311
93.132,56.7002,-0.000311
93.148,56.6958,-0.000311
93.165,56.6915,-0.000311
93.180,56.6878,-0.000311
93.196,56.6842,-0.000311
93.212,56.6804,-0.000311
93.228,56.6770,-0.000311
93.244,56.6740,-0.000311
93.260,56.6710,-0.000254
93.276,56.6684,-0.000254
93.292,56.6658,-0.000254
93.308,56.6633,-0.000254
93.324,56.6612,-0.000254
93.341,56.6591,-0.000254
93.356,56.6575,-0.000254
93.372,56.6558,-0.000254
93.388,56.6544,-0.000254
93.404,56.6532,-0.000254
93.420,56.6522,-0.000254
93.435,56.6514,-0.000254
93.452,56.6508,-0.000254
93.468,56.6503,-0.000254
93.483,56.6501,-0.000254
93.500,56.6501,-0.000254
93.526,56.6501,-0.000273
93.542,56.6501,-0.000273
93.558,56.6501,-0.000273
93.574,56.6501,-0.000273
93.605,56.6501,-0.000273
93.620,56.6501,-0.000273
93.636,56.6501,-0.000273
93.653,56.6501,-0.000273
93.669,56.6501,-0.000273
93.684,56.6501,-0.000273
93.701,56.6501,-0.000273
93.717,56.6503,-0.000273
93.733,56.6507,-0.000273
93.749,56.6513,-0.000188
93.764,56.6520,-0.000188
93.781,56.6530,-0.000188
93.796,56.6542,-0.000188
93.812,56.6555,-0.000188
93.829,56.6570,-0.000188
93.845,56.6589,-0.000188
93.860,56.6607,-0.000188
93.877,56.6628,-0.000188
93.892,56.6652,-0.000188
93.908,56.6677,-0.000188
93.924,56.6704,-0.000188
93.941,56.6734,-0.000188
93.957,56.6765,-0.000188
93.973,56.6800,-0.000188
93.989,56.6833,-0.000282
94.005,56.6870,-0.000282
94.020,56.6907,-0.000282
94.036,56.6947,-0.000282
94.052,56.6991,-0.000282
94.082,56.7075,-0.000282
94.098,56.7126,-0.000282
94.114,56.7174,-0.000282
94.131,56.7226,-0.000282
94.146,56.7279,-0.000282
94.163,56.7338,-0.000282
94.178,56.7392,-0.000282
94.195,56.7454,-0.000282
94.211,56.7519,-0.000282
94.226,56.7578,-0.000282
94.243,56.7653,-0.000377
94.270,56.7766,-0.000377
94.292,56.7862,-0.000377
94.317,56.7978,-0.000377
94.340,56.8083,-0.000377
94.355,56.8159,-0.000377
94.371,56.8242,-0.000377
94.386,56.8321,-0.000377
94.402,56.8409,-0.000377
94.418,56.8492,-0.000377
94.434,56.8582,-0.000377
94.450,56.8674,-0.000377
94.467,56.8768,-0.000377
94.482,56.8861,-0.000358
94.498,56.8958,-0.000358
94.514,56.9054,-0.000358
94.530,56.9156,-0.000358
94.547,56.9260,-0.000358
94.563,56.9366,-0.000358
94.578,56.9471,-0.000358
94.595,56.9581,-0.000358
94.610,56.9687,-0.000358
94.639,56.9898,-0.000358
94.656,57.0009,-0.000358
94.671,57.0125,-0.000358
94.687,57.0245,-0.000358
94.705,57.0380,-0.000358
94.735,57.0613,-0.000367
94.751,57.0743,-0.000367
94.768,57.0876,-0.000367
94.783,57.1001,-0.000367
94.799,57.1134,-0.000367
94.815,57.1269,-0.000367
94.832,57.1414,-0.000367
94.847,57.1545,-0.000367
94.863,57.1685,-0.000367
94.879,57.1827,-0.000367
94.895,57.1974,-0.000367
94.911,57.2118,-0.000367
94.927,57.2266,-0.000367
94.943,57.2418,-0.000367
94.959,57.2577,-0.000367
94.975,57.2724,-0.000367
94.991,57.2883,-0.000395
95.007,57.3040,-0.000395
95.023,57.3203,-0.000395
95.039,57.3363,-0.000395
95.055,57.3524,-0.000395
95.071,57.3690,-0.000395
95.087,57.3866,-0.000395
95.103,57.4029,-0.000395
95.119,57.4200,-0.000395
95.136,57.4389,-0.000395
95.165,57.4713,-0.000395
95.181,57.4892,-0.000395
95.212,57.5249,-0.000395
95.229,57.5433,-0.000395
95.244,57.5609,-0.000461
95.261,57.5810,-0.000461
95.288,57.6143,-0.000461
95.308,57.6380,-0.000461
95.324,57.6574,-0.000461
95.340,57.6770,-0.000461
95.356,57.6973,-0.000461
95.372,57.7173,-0.000461
95.390,57.7404,-0.000461
95.413,57.7710,-0.000461
95.444,57.8112,-0.000461
95.474,57.8515,-0.000461
95.506,57.8944,-0.000537
95.536,57.9353,-0.000537
95.552,57.9594,-0.000537
95.567,57.9812,-0.000537
95.583,58.0027,-0.000537
95.598,58.0249,-0.000537
95.614,58.0488,-0.000537
95.630,58.0714,-0.000537
95.646,58.0942,-0.000537
95.661,58.1171,-0.000537
95.692,58.1644,-0.000537
95.708,58.1871,-0.000537
95.724,58.2131,-0.000537
95.740,58.2362,-0.000631
95.756,58.2616,-0.000631
95.772,58.2861,-0.000631
95.788,58.3114,-0.000631
95.806,58.3396,-0.000631
95.832,58.3825,-0.000631
95.852,58.4144,-0.000631
95.868,58.4411,-0.000631
95.884,58.4681,-0.000631
95.900,58.4940,-0.000631
95.916,58.5206,-0.000631
95.932,58.5484,-0.000631
95.948,58.5754,-0.000631
95.963,58.6018,-0.000631
95.980,58.6313,-0.000631
96.007,58.6778,-0.000631
96.028,58.7141,-0.000631
96.044,58.7418,-0.000687
96.060,58.7705,-0.000687
96.076,58.8005,-0.000687
96.092,58.8283,-0.000687
96.112,58.8660,-0.000687
96.139,58.9146,-0.000687
96.156,58.9467,-0.000687
96.172,58.9761,-0.000687
96.188,59.0073,-0.000687
96.204,59.0370,-0.000687
96.231,59.0901,-0.000687
96.250,59.1263,-0.000687
96.277,59.1782,-0.000687
96.295,59.2141,-0.000706
96.311,59.2445,-0.000706
96.327,59.2759,-0.000706
96.343,59.3079,-0.000706
96.359,59.3399,-0.000706
96.375,59.3739,-0.000706
96.391,59.4051,-0.000706
96.407,59.4379,-0.000706
96.423,59.4722,-0.000706
96.440,59.5055,-0.000706
96.463,59.5556,-0.000706
96.478,59.5873,-0.000706
96.510,59.6537,-0.000706
96.525,59.6879,-0.000734
96.540,59.7186,-0.000734
96.556,59.7519,-0.000734
96.587,59.8177,-0.000734
96.603,59.8491,-0.000734
96.618,59.8820,-0.000734
96.650,59.9462,-0.000734
96.680,60.0060,-0.000734
96.696,60.0385,-0.000734
96.726,60.0988,-0.000734
96.743,60.1309,-0.000734
96.758,60.1599,-0.000734
96.775,60.1917,-0.000734
96.800,60.2393,-0.000715
96.815,60.2681,-0.000715
96.831,60.2993,-0.000715
96.847,60.3279,-0.000715
96.862,60.3576,-0.000715
96.878,60.3875,-0.000715
96.895,60.4174,-0.000715
96.911,60.4470,-0.000715
96.927,60.4753,-0.000715
96.942,60.5057,-0.000715
96.958,60.5330,-0.000715
96.974,60.5616,-0.000715
96.990,60.5900,-0.000715
97.007,60.6193,-0.000715
97.022,60.6463,-0.000640
97.038,60.6738,-0.000640
97.055,60.7024,-0.000640
97.070,60.7289,-0.000640
97.087,60.7566,-0.000640
97.102,60.7828,-0.000640
97.119,60.8114,-0.000640
97.134,60.8371,-0.000640
97.151,60.8633,-0.000640
97.166,60.8889,-0.000640
97.182,60.9160,-0.000640
97.198,60.9408,-0.000640
97.214,60.9664,-0.000640
97.231,60.9940,-0.000640
97.250,61.0230,-0.000640
97.267,61.0499,-0.000640
97.298,61.0980,-0.000706
97.322,61.1346,-0.000706
97.339,61.1597,-0.000706
97.354,61.1827,-0.000706
97.371,61.2072,-0.000706
97.386,61.2296,-0.000706
97.402,61.2532,-0.000706
97.418,61.2765,-0.000706
97.434,61.2997,-0.000706
97.451,61.3224,-0.000706
97.466,61.3446,-0.000706
97.482,61.3680,-0.000706
97.499,61.3899,-0.000706
97.514,61.4113,-0.000697
97.530,61.4329,-0.000697
97.550,61.4602,-0.000697
97.576,61.4947,-0.000697
97.594,61.5187,-0.000697
97.610,61.5394,-0.000697
97.626,61.5600,-0.000697
97.643,61.5816,-0.000697
97.659,61.6019,-0.000697
97.675,61.6212,-0.000697
97.690,61.6408,-0.000697
97.707,61.6612,-0.000697
97.733,61.6931,-0.000697
97.756,61.7203,-0.000697
97.779,61.7472,-0.000697
97.794,61.7650,-0.000706
97.810,61.7839,-0.000706
97.825,61.8015,-0.000706
97.856,61.8352,-0.000706
97.888,61.8701,-0.000706
97.918,61.9031,-0.000706
97.949,61.9356,-0.000706
97.964,61.9511,-0.000706
97.996,61.9828,-0.000659
98.011,61.9984,-0.000659
98.042,62.0285,-0.000659
98.058,62.0445,-0.000659
98.074,62.0591,-0.000659
98.092,62.0772,-0.000659
98.107,62.0903,-0.000659
98.134,62.1150,-0.000659
98.155,62.1336,-0.000659
98.180,62.1551,-0.000659
98.195,62.1685,-0.000659
98.212,62.1831,-0.000659
98.242,62.2077,-0.000659
98.257,62.2198,-0.000574
98.288,62.2450,-0.000574
98.319,62.2686,-0.000574
98.335,62.2806,-0.000574
98.365,62.3027,-0.000574
98.396,62.3244,-0.000574
98.412,62.3359,-0.000574
98.443,62.3566,-0.000574
98.459,62.3673,-0.000574
98.491,62.3879,-0.000621
98.506,62.3973,-0.000621
98.522,62.4076,-0.000621
98.538,62.4165,-0.000621
98.554,62.4260,-0.000621
98.570,62.4353,-0.000621
98.586,62.4447,-0.000621
98.602,62.4531,-0.000621
98.618,62.4616,-0.000621
98.634,62.4700,-0.000621
98.651,62.4792,-0.000621
98.670,62.4885,-0.000621
98.693,62.4999,-0.000621
98.714,62.5095,-0.000621
98.731,62.5170,-0.000621
98.755,62.5279,-0.000631
98.786,62.5408,-0.000631
98.816,62.5527,-0.000631
98.847,62.5645,-0.000631
98.878,62.5750,-0.000631
98.910,62.5853,-0.000631
98.940,62.5948,-0.000631
98.971,62.6031,-0.000631
99.002,62.6109,-0.000640
99.018,62.6146,-0.000640
99.034,62.6183,-0.000640
99.050,62.6217,-0.000640
99.066,62.6251,-0.000640
99.082,62.6281,-0.000640
99.099,62.6310,-0.000640
99.114,62.6334,-0.000640
99.130,62.6359,-0.000640
99.146,62.6380,-0.000640
99.162,62.6401,-0.000640
99.178,62.6420,-0.000640
99.194,62.6437,-0.000640
99.210,62.6452,-0.000640
99.226,62.6465,-0.000640
99.242,62.6476,-0.000668
99.258,62.6485,-0.000668
99.274,62.6492,-0.000668
99.290,62.6496,-0.000668
99.306,62.6499,-0.000668
99.322,62.6501,-0.000668
99.338,62.6501,-0.000668
99.354,62.6501,-0.000668
99.370,62.6501,-0.000668
99.386,62.6501,-0.000668
99.402,62.6501,-0.000668
99.433,62.6501,-0.000668
99.449,62.6501,-0.000668
99.465,62.6501,-0.000668
99.481,62.6501,-0.000668
99.497,62.6501,-0.000668
99.512,62.6501,-0.000668
