Elapsed Time (s),Position (mm),Force (N)
-0.017,59.4500,-0.000753
0.000,59.4500,-0.000753
0.016,59.4500,-0.000753
0.032,59.4500,-0.000753
0.047,59.4500,-0.000753
0.063,59.4500,-0.000753
0.080,59.4500,-0.000753
0.095,59.4500,-0.000753
0.111,59.4500,-0.000753
0.128,59.4500,-0.000753
0.148,59.4500,-0.000753
0.178,59.4500,-0.000800
0.209,59.4500,-0.000800
0.239,59.4500,-0.000800
0.258,59.4500,-0.000800
0.286,59.4500,-0.000800
0.303,59.4500,-0.000800
0.321,59.4500,-0.000800
0.347,59.4500,-0.000800
0.367,59.4500,-0.000800
0.387,59.4500,-0.000800
0.408,59.4500,-0.000800
0.439,59.4500,-0.000819
0.470,59.4500,-0.000819
0.494,59.4500,-0.000819
0.510,59.4500,-0.000819
0.526,59.4500,-0.000819
0.542,59.4500,-0.000819
0.558,59.4500,-0.000819
0.574,59.4500,-0.000819
0.590,59.4500,-0.000819
0.606,59.4500,-0.000819
0.622,59.4500,-0.000819
0.638,59.4500,-0.000810
0.654,59.4500,-0.000810
0.670,59.4500,-0.000810
0.686,59.4500,-0.000810
0.702,59.4500,-0.000810
0.718,59.4500,-0.000810
0.735,59.4500,-0.000810
0.764,59.4500,-0.000810
0.782,59.4500,-0.000810
0.803,59.4500,-0.000810
0.828,59.4500,-0.000810
0.846,59.4500,-0.000810
0.862,59.4500,-0.000810
0.878,59.4500,-0.000810
0.894,59.4500,-0.000838
0.910,59.4500,-0.000838
0.927,59.4500,-0.000838
0.942,59.4500,-0.000838
0.958,59.4500,-0.000838
0.974,59.4500,-0.000838
0.991,59.4500,-0.000838
1.007,59.4500,-0.000838
1.022,59.4500,-0.000838
1.049,59.4500,-0.000838
1.066,59.4500,-0.000838
1.090,59.4500,-0.000838
1.120,59.4500,-0.000838
1.135,59.4500,-0.000838
1.151,59.4500,-0.000866
1.182,59.4500,-0.000866
1.212,59.4500,-0.000866
1.244,59.4500,-0.000866
1.275,59.4500,-0.000866
1.306,59.4500,-0.000866
1.337,59.4500,-0.000866
1.354,59.4500,-0.000866
1.369,59.4500,-0.000866
1.385,59.4500,-0.000838
1.401,59.4500,-0.000838
1.422,59.4500,-0.000838
1.445,59.4500,-0.000838
1.465,59.4500,-0.000838
1.483,59.4500,-0.000838
1.508,59.4500,-0.000838
1.529,59.4500,-0.000838
1.545,59.4500,-0.000838
1.562,59.4500,-0.000838
1.586,59.4500,-0.000838
1.607,59.4500,-0.000838
1.624,59.4500,-0.000838
1.647,59.4500,-0.000847
1.663,59.4500,-0.000847
1.695,59.4500,-0.000847
1.710,59.4500,-0.000847
1.741,59.4500,-0.000847
1.771,59.4500,-0.000847
1.787,59.4500,-0.000847
1.804,59.4500,-0.000847
1.834,59.4500,-0.000847
1.865,59.4500,-0.000847
1.880,59.4500,-0.000847
1.896,59.4500,-0.000819
1.911,59.4500,-0.000819
1.927,59.4500,-0.000819
1.943,59.4500,-0.000819
1.959,59.4500,-0.000819
1.975,59.4500,-0.000819
1.990,59.4500,-0.000819
2.007,59.4500,-0.000819
2.023,59.4500,-0.000819
2.039,59.4500,-0.000819
2.054,59.4500,-0.000819
2.070,59.4500,-0.000819
2.086,59.4500,-0.000819
2.102,59.4500,-0.000819
2.119,59.4500,-0.000819
2.143,59.4500,-0.000819
2.163,59.4500,-0.000819
2.180,59.4500,-0.000819
2.196,59.4500,-0.000819
2.212,59.4500,-0.000819
2.227,59.4500,-0.000819
2.244,59.4500,-0.000819
2.259,59.4500,-0.000819
2.276,59.4500,-0.000819
2.292,59.4500,-0.000819
2.308,59.4500,-0.000819
2.324,59.4500,-0.000819
2.340,59.4500,-0.000819
2.356,59.4500,-0.000819
2.371,59.4500,-0.000819
2.388,59.4500,-0.000819
2.405,59.4500,-0.000819
2.422,59.4500,-0.000819
2.438,59.4500,-0.000819
2.453,59.4500,-0.000819
2.484,59.4500,-0.000819
2.499,59.4500,-0.000819
2.515,59.4500,-0.000819
2.531,59.4500,-0.000819
2.548,59.4500,-0.000819
2.564,59.4500,-0.000819
2.580,59.4500,-0.000819
2.595,59.4500,-0.000819
2.611,59.4500,-0.000819
2.627,59.4500,-0.000819
2.643,59.4500,-0.000819
2.660,59.4500,-0.000819
2.675,59.4500,-0.000819
2.699,59.4500,-0.000866
2.715,59.4500,-0.000866
2.746,59.4500,-0.000866
2.763,59.4500,-0.000866
2.779,59.4500,-0.000866
2.795,59.4500,-0.000866
2.811,59.4500,-0.000866
2.827,59.4500,-0.000866
2.855,59.4500,-0.000866
2.874,59.4500,-0.000866
2.891,59.4500,-0.000866
2.907,59.4500,-0.000866
2.922,59.4500,-0.000885
2.938,59.4500,-0.000885
2.955,59.4500,-0.000885
2.970,59.4500,-0.000885
2.986,59.4500,-0.000885
3.002,59.4500,-0.000885
3.018,59.4500,-0.000885
3.034,59.4500,-0.000885
3.050,59.4500,-0.000885
3.066,59.4500,-0.000885
3.083,59.4500,-0.000885
3.098,59.4500,-0.000885
3.114,59.4500,-0.000885
3.130,59.4500,-0.000885
3.146,59.4500,-0.000885
3.163,59.4500,-0.000857
3.178,59.4500,-0.000857
3.194,59.4500,-0.000857
3.210,59.4500,-0.000857
3.226,59.4500,-0.000857
3.254,59.4500,-0.000857
3.277,59.4500,-0.000857
3.303,59.4500,-0.000857
3.319,59.4500,-0.000857
3.349,59.4500,-0.000857
3.365,59.4500,-0.000857
3.381,59.4500,-0.000857
3.397,59.4500,-0.000857
3.413,59.4500,-0.000913
3.429,59.4500,-0.000913
3.446,59.4500,-0.000913
3.461,59.4500,-0.000913
3.477,59.4500,-0.000913
3.493,59.4500,-0.000913
3.509,59.4500,-0.000913
3.526,59.4500,-0.000913
3.549,59.4500,-0.000913
3.580,59.4500,-0.000913
3.610,59.4500,-0.000913
3.641,59.4500,-0.000913
3.656,59.4500,-0.000913
3.672,59.4500,-0.000913
3.688,59.4500,-0.000913
3.717,59.4500,-0.000913
3.733,59.4500,-0.000913
3.749,59.4500,-0.000913
3.765,59.4500,-0.000913
3.781,59.4500,-0.000913
3.808,59.4500,-0.000913
3.824,59.4500,-0.000913
3.841,59.4500,-0.000913
3.856,59.4500,-0.000913
3.872,59.4500,-0.000913
3.888,59.4500,-0.000913
3.904,59.4500,-0.000847
3.920,59.4500,-0.000847
3.938,59.4500,-0.000847
3.964,59.4500,-0.000847
3.984,59.4500,-0.000847
4.000,59.4500,-0.000847
4.016,59.4500,-0.000847
4.032,59.4500,-0.000847
4.048,59.4500,-0.000847
4.064,59.4500,-0.000847
4.081,59.4500,-0.000847
4.103,59.4500,-0.000847
4.134,59.4494,-0.000847
4.165,59.4480,-0.000847
4.195,59.4460,-0.000847
4.211,59.4447,-0.000847
4.227,59.4432,-0.000847
4.258,59.4397,-0.000847
4.274,59.4376,-0.000847
4.304,59.4331,-0.000847
4.320,59.4304,-0.000847
4.345,59.4260,-0.000847
4.361,59.4229,-0.000847
4.377,59.4196,-0.000847
4.394,59.4158,-0.000847
4.412,59.4113,-0.000847
4.443,59.4035,-0.000687
4.459,59.3992,-0.000687
4.474,59.3951,-0.000687
4.489,59.3905,-0.000687
4.520,59.3808,-0.000687
4.537,59.3752,-0.000687
4.554,59.3698,-0.000687
4.583,59.3590,-0.000687
4.606,59.3501,-0.000687
4.630,59.3410,-0.000687
4.649,59.3332,-0.000687
4.665,59.3262,-0.000687
4.682,59.3189,-0.000574
4.697,59.3121,-0.000574
4.713,59.3042,-0.000574
4.728,59.2972,-0.000574
4.745,59.2894,-0.000574
4.761,59.2813,-0.000574
4.777,59.2732,-0.000574
4.793,59.2647,-0.000574
4.809,59.2560,-0.000574
4.825,59.2472,-0.000574
4.841,59.2382,-0.000574
4.856,59.2294,-0.000574
4.886,59.2123,-0.000574
4.902,59.2023,-0.000574
4.917,59.1928,-0.000678
4.934,59.1826,-0.000678
4.949,59.1725,-0.000678
4.966,59.1614,-0.000678
4.981,59.1511,-0.000678
4.998,59.1401,-0.000678
5.014,59.1287,-0.000678
5.030,59.1176,-0.000678
5.046,59.1065,-0.000678
5.061,59.0951,-0.000678
5.077,59.0828,-0.000678
5.094,59.0710,-0.000678
5.110,59.0583,-0.000678
5.138,59.0368,-0.000678
5.160,59.0182,-0.000678
5.184,58.9994,-0.000678
5.216,58.9729,-0.000659
5.246,58.9467,-0.000659
5.276,58.9197,-0.000659
5.292,58.9054,-0.000659
5.308,58.8913,-0.000659
5.324,58.8767,-0.000659
5.339,58.8621,-0.000659
5.370,58.8325,-0.000659
5.385,58.8181,-0.000659
5.401,58.8030,-0.000659
5.432,58.7717,-0.000640
5.463,58.7391,-0.000640
5.494,58.7064,-0.000640
5.509,58.6907,-0.000640
5.525,58.6736,-0.000640
5.541,58.6559,-0.000640
5.559,58.6365,-0.000640
5.588,58.6038,-0.000640
5.606,58.5841,-0.000640
5.622,58.5650,-0.000640
5.637,58.5474,-0.000640
5.654,58.5280,-0.000565
5.669,58.5097,-0.000565
5.692,58.4820,-0.000565
5.712,58.4578,-0.000565
5.733,58.4319,-0.000565
5.750,58.4109,-0.000565
5.766,58.3911,-0.000565
5.781,58.3714,-0.000565
5.797,58.3504,-0.000565
5.814,58.3295,-0.000565
5.829,58.3092,-0.000565
5.846,58.2875,-0.000565
5.861,58.2663,-0.000565
5.878,58.2445,-0.000565
5.893,58.2237,-0.000480
5.909,58.2017,-0.000480
5.925,58.1793,-0.000480
5.953,58.1403,-0.000480
5.968,58.1181,-0.000480
5.984,58.0962,-0.000480
6.000,58.0726,-0.000480
6.016,58.0504,-0.000480
6.032,58.0262,-0.000480
6.048,58.0034,-0.000480
6.065,57.9788,-0.000480
6.080,57.9553,-0.000480
6.096,57.9316,-0.000480
6.112,57.9073,-0.000480
6.128,57.8824,-0.000480
6.144,57.8577,-0.000461
6.160,57.8329,-0.000461
6.177,57.8070,-0.000461
6.192,57.7823,-0.000461
6.209,57.7556,-0.000461
6.226,57.7282,-0.000461
6.242,57.7013,-0.000461
6.257,57.6772,-0.000461
6.288,57.6253,-0.000461
6.304,57.5985,-0.000461
6.320,57.5729,-0.000461
6.336,57.5439,-0.000461
6.352,57.5180,-0.000461
6.369,57.4893,-0.000461
6.396,57.4422,-0.000433
6.416,57.4076,-0.000433
6.433,57.3775,-0.000433
6.448,57.3494,-0.000433
6.464,57.3220,-0.000433
6.489,57.2769,-0.000433
6.504,57.2488,-0.000433
6.520,57.2191,-0.000433
6.536,57.1912,-0.000433
6.559,57.1481,-0.000433
6.581,57.1054,-0.000433
6.600,57.0711,-0.000433
6.616,57.0405,-0.000433
6.632,57.0102,-0.000433
6.648,56.9791,-0.000301
6.664,56.9478,-0.000301
6.680,56.9161,-0.000301
6.697,56.8838,-0.000301
6.721,56.8347,-0.000301
6.737,56.8034,-0.000301
6.768,56.7412,-0.000301
6.783,56.7091,-0.000301
6.799,56.6776,-0.000301
6.830,56.6152,-0.000301
6.845,56.5807,-0.000301
6.861,56.5494,-0.000301
6.876,56.5161,-0.000301
6.892,56.4846,-0.000169
6.908,56.4496,-0.000169
6.940,56.3830,-0.000169
6.970,56.3184,-0.000169
6.985,56.2867,-0.000169
7.001,56.2542,-0.000169
7.032,56.1909,-0.000169
7.049,56.1557,-0.000169
7.064,56.1246,-0.000169
7.080,56.0920,-0.000169
7.097,56.0585,-0.000169
7.118,56.0146,-0.000169
7.140,55.9734,-0.000169
7.160,55.9331,-0.000235
7.177,55.9012,-0.000235
7.192,55.8706,-0.000235
7.208,55.8411,-0.000235
7.224,55.8102,-0.000235
7.240,55.7790,-0.000235
7.256,55.7495,-0.000235
7.272,55.7190,-0.000235
7.288,55.6873,-0.000235
7.313,55.6419,-0.000235
7.339,55.5941,-0.000235
7.370,55.5379,-0.000235
7.401,55.4841,-0.000235
7.419,55.4501,-0.000235
7.447,55.4019,-0.000235
7.464,55.3732,-0.000235
7.486,55.3344,-0.000235
7.509,55.2950,-0.000235
7.528,55.2639,-0.000235
7.544,55.2372,-0.000235
7.560,55.2105,-0.000235
7.576,55.1831,-0.000235
7.591,55.1588,-0.000235
7.608,55.1320,-0.000235
7.624,55.1056,-0.000235
7.641,55.0798,-0.000235
7.664,55.0417,-0.000122
7.695,54.9936,-0.000122
7.725,54.9464,-0.000122
7.741,54.9229,-0.000122
7.772,54.8774,-0.000122
7.802,54.8324,-0.000122
7.817,54.8097,-0.000122
7.832,54.7870,-0.000122
7.848,54.7658,-0.000122
7.864,54.7425,-0.000122
7.880,54.7196,-0.000122
7.896,54.6968,-0.000217
7.912,54.6737,-0.000217
7.943,54.6322,-0.000217
7.960,54.6091,-0.000217
7.976,54.5868,-0.000217
7.997,54.5587,-0.000217
8.019,54.5299,-0.000217
8.040,54.5030,-0.000217
8.056,54.4825,-0.000217
8.072,54.4615,-0.000217
8.087,54.4428,-0.000217
8.110,54.4137,-0.000217
8.126,54.3937,-0.000217
8.142,54.3747,-0.000631
8.158,54.3554,-0.000631
8.175,54.3350,-0.000631
8.202,54.3037,-0.000631
8.222,54.2798,-0.000631
8.238,54.2615,-0.000631
8.254,54.2434,-0.000631
8.270,54.2257,-0.000631
8.287,54.2062,-0.000631
8.302,54.1899,-0.000631
8.319,54.1721,-0.000631
8.334,54.1553,-0.000631
8.351,54.1373,-0.000631
8.372,54.1163,-0.000631
8.403,54.0834,-0.000922
8.419,54.0679,-0.000922
8.450,54.0370,-0.000922
8.481,54.0072,-0.000922
8.511,53.9788,-0.000922
8.526,53.9640,-0.000922
8.542,53.9487,-0.000922
8.559,53.9342,-0.000922
8.575,53.9206,-0.000922
8.591,53.9055,-0.000922
8.607,53.8918,-0.000922
8.634,53.8690,-0.000922
8.655,53.8509,-0.000894
8.671,53.8387,-0.000894
8.687,53.8254,-0.000894
8.703,53.8129,-0.000894
8.719,53.8004,-0.000894
8.735,53.7878,-0.000894
8.750,53.7761,-0.000894
8.766,53.7643,-0.000894
8.782,53.7524,-0.000894
8.798,53.7410,-0.000894
8.814,53.7294,-0.000894
8.830,53.7183,-0.000894
8.846,53.7072,-0.000894
8.863,53.6962,-0.000894
8.878,53.6859,-0.000894
8.894,53.6751,-0.000894
8.910,53.6653,-0.000894
8.926,53.6553,-0.000904
8.943,53.6446,-0.000904
8.972,53.6270,-0.000904
8.990,53.6169,-0.000904
9.006,53.6079,-0.000904
9.024,53.5980,-0.000904
9.050,53.5842,-0.000904
9.070,53.5735,-0.000904
9.086,53.5652,-0.000904
9.102,53.5577,-0.000904
9.118,53.5498,-0.000904
9.134,53.5424,-0.000904
9.151,53.5345,-0.000904
9.166,53.5278,-0.000904
9.182,53.5210,-0.000904
9.204,53.5116,-0.000988
9.220,53.5054,-0.000988
9.235,53.4992,-0.000988
9.251,53.4932,-0.000988
9.268,53.4867,-0.000988
9.296,53.4772,-0.000988
9.315,53.4707,-0.000988
9.331,53.4656,-0.000988
9.347,53.4607,-0.000988
9.363,53.4557,-0.000988
9.379,53.4514,-0.000988
9.395,53.4468,-0.000988
9.411,53.4428,-0.000988
9.427,53.4388,-0.000970
9.443,53.4351,-0.000970
9.459,53.4314,-0.000970
9.475,53.4281,-0.000970
9.491,53.4248,-0.000970
9.507,53.4219,-0.000970
9.523,53.4190,-0.000970
9.539,53.4164,-0.000970
9.555,53.4140,-0.000970
9.571,53.4118,-0.000970
9.587,53.4097,-0.000970
9.604,53.4078,-0.000970
9.621,53.4060,-0.000970
9.652,53.4034,-0.000970
9.667,53.4024,-0.000951
9.683,53.4016,-0.000951
9.700,53.4009,-0.000951
9.715,53.4004,-0.000951
9.733,53.4002,-0.000951
9.755,53.4000,-0.000951
9.771,53.4000,-0.000951
9.787,53.4000,-0.000951
9.804,53.4000,-0.000951
9.830,53.4000,-0.000951
9.851,53.4000,-0.000951
9.867,53.4000,-0.000951
9.883,53.4002,-0.000951
9.899,53.4004,-0.000885
9.915,53.4010,-0.000885
9.934,53.4018,-0.000885
9.961,53.4035,-0.000885
9.978,53.4049,-0.000885
9.995,53.4064,-0.000885
10.011,53.4080,-0.000885
10.027,53.4099,-0.000885
10.043,53.4119,-0.000885
10.059,53.4142,-0.000885
10.075,53.4166,-0.000885
10.091,53.4191,-0.000885
10.107,53.4222,-0.000885
10.124,53.4253,-0.000885
10.146,53.4299,-0.000885
10.177,53.4367,-0.000932
10.193,53.4406,-0.000932
10.224,53.4488,-0.000932
10.239,53.4529,-0.000932
10.256,53.4577,-0.000932
10.287,53.4675,-0.000932
10.303,53.4725,-0.000932
10.334,53.4829,-0.000932
10.349,53.4888,-0.000932
10.380,53.5000,-0.000932
10.396,53.5064,-0.001026
10.411,53.5126,-0.001026
10.428,53.5198,-0.001026
10.457,53.5325,-0.001026
10.475,53.5404,-0.001026
10.492,53.5484,-0.001026
10.518,53.5613,-0.001026
10.539,53.5716,-0.001026
10.555,53.5800,-0.001026
10.571,53.5884,-0.001026
10.586,53.5966,-0.001026
10.603,53.6058,-0.001026
10.619,53.6150,-0.001026
10.635,53.6240,-0.000960
10.651,53.6336,-0.000960
10.667,53.6427,-0.000960
10.683,53.6529,-0.000960
10.698,53.6626,-0.000960
10.715,53.6728,-0.000960
10.731,53.6839,-0.000960
10.747,53.6940,-0.000960
10.762,53.7045,-0.000960
10.779,53.7162,-0.000960
10.795,53.7266,-0.000960
10.818,53.7436,-0.000960
10.835,53.7557,-0.000960
10.850,53.7673,-0.000960
10.867,53.7794,-0.000960
10.883,53.7917,-0.000960
10.899,53.8045,-0.000970
10.914,53.8164,-0.000970
10.931,53.8295,-0.000970
10.947,53.8422,-0.000970
10.962,53.8552,-0.000970
10.978,53.8687,-0.000970
10.994,53.8822,-0.000970
11.011,53.8965,-0.000970
11.026,53.9099,-0.000970
11.042,53.9248,-0.000970
11.058,53.9387,-0.000970
11.075,53.9535,-0.000970
11.091,53.9683,-0.000970
11.107,53.9837,-0.000970
11.123,53.9989,-0.000970
11.150,54.0250,-0.001064
11.170,54.0442,-0.001064
11.189,54.0633,-0.001064
11.211,54.0854,-0.001064
11.242,54.1178,-0.001064
11.259,54.1354,-0.001064
11.289,54.1670,-0.001064
11.305,54.1840,-0.001064
11.336,54.2183,-0.001064
11.351,54.2354,-0.001064
11.368,54.2547,-0.001064
11.398,54.2883,-0.001026
11.429,54.3252,-0.001026
11.445,54.3447,-0.001026
11.461,54.3628,-0.001026
11.492,54.4019,-0.001026
11.522,54.4393,-0.001026
11.539,54.4601,-0.001026
11.555,54.4795,-0.001026
11.571,54.5002,-0.001026
11.587,54.5221,-0.001026
11.604,54.5438,-0.001026
11.632,54.5802,-0.000932
11.650,54.6058,-0.000932
11.667,54.6276,-0.000932
11.683,54.6493,-0.000932
11.699,54.6718,-0.000932
11.715,54.6948,-0.000932
11.734,54.7220,-0.000932
11.756,54.7521,-0.000932
11.785,54.7949,-0.000932
11.801,54.8186,-0.000932
11.831,54.8619,-0.000932
11.847,54.8855,-0.000932
11.878,54.9323,-0.000932
11.904,54.9729,-0.000988
11.920,54.9973,-0.000988
11.936,55.0225,-0.000988
11.952,55.0476,-0.000988
11.968,55.0731,-0.000988
11.984,55.0984,-0.000988
12.000,55.1251,-0.000988
12.017,55.1525,-0.000988
12.039,55.1884,-0.000988
12.064,55.2299,-0.000988
12.081,55.2584,-0.000988
12.097,55.2851,-0.000988
12.112,55.3101,-0.000988
12.129,55.3386,-0.000988
12.145,55.3668,-0.000988
12.160,55.3925,-0.000988
12.176,55.4206,-0.001045
12.192,55.4482,-0.001045
12.209,55.4792,-0.001045
12.235,55.5255,-0.001045
12.256,55.5626,-0.001045
12.272,55.5920,-0.001045
12.288,55.6209,-0.001045
12.304,55.6499,-0.001045
12.320,55.6813,-0.001045
12.337,55.7113,-0.001045
12.358,55.7513,-0.001045
12.389,55.8113,-0.001045
12.420,55.8711,-0.001045
12.451,55.9301,-0.000988
12.467,55.9621,-0.000988
12.482,55.9925,-0.000988
12.498,56.0231,-0.000988
12.529,56.0840,-0.000988
12.544,56.1161,-0.000988
12.560,56.1475,-0.000988
12.577,56.1826,-0.000988
12.605,56.2410,-0.000988
12.624,56.2797,-0.000988
12.640,56.3128,-0.000922
12.656,56.3467,-0.000922
12.672,56.3804,-0.000922
12.688,56.4152,-0.000922
12.704,56.4482,-0.000922
12.721,56.4859,-0.000922
12.737,56.5177,-0.000922
12.760,56.5675,-0.000922
12.775,56.5980,-0.000922
12.807,56.6620,-0.000922
12.838,56.7261,-0.000922
12.869,56.7861,-0.000922
12.900,56.8487,-0.000555
12.930,56.9068,-0.000555
12.945,56.9372,-0.000555
12.962,56.9694,-0.000555
12.992,57.0255,-0.000555
13.020,57.0789,-0.000555
13.035,57.1080,-0.000555
13.051,57.1372,-0.000555
13.067,57.1658,-0.000555
13.083,57.1959,-0.000555
13.099,57.2239,-0.000555
13.115,57.2533,-0.000555
13.131,57.2826,-0.000555
13.147,57.3110,-0.000555
13.163,57.3396,-0.000555
13.179,57.3689,-0.000245
13.195,57.3949,-0.000245
13.215,57.4307,-0.000245
13.237,57.4687,-0.000245
13.268,57.5212,-0.000245
13.284,57.5468,-0.000245
13.314,57.5966,-0.000245
13.329,57.6239,-0.000245
13.360,57.6724,-0.000245
13.391,57.7240,-0.000245
13.422,57.7717,-0.000339
13.452,57.8199,-0.000339
13.484,57.8666,-0.000339
13.499,57.8900,-0.000339
13.515,57.9152,-0.000339
13.530,57.9373,-0.000339
13.547,57.9616,-0.000339
13.574,58.0015,-0.000339
13.592,58.0283,-0.000339
13.609,58.0520,-0.000339
13.639,58.0947,-0.000339
13.655,58.1171,-0.000339
13.686,58.1592,-0.000471
13.702,58.1815,-0.000471
13.731,58.2208,-0.000471
13.749,58.2439,-0.000471
13.765,58.2652,-0.000471
13.780,58.2858,-0.000471
13.797,58.3073,-0.000471
13.813,58.3272,-0.000471
13.829,58.3479,-0.000471
13.845,58.3680,-0.000471
13.860,58.3870,-0.000471
13.876,58.4067,-0.000471
13.893,58.4283,-0.000471
13.920,58.4602,-0.000518
13.941,58.4840,-0.000518
13.956,58.5033,-0.000518
13.972,58.5215,-0.000518
13.988,58.5392,-0.000518
14.004,58.5577,-0.000518
14.021,58.5766,-0.000518
14.036,58.5931,-0.000518
14.052,58.6106,-0.000518
14.068,58.6281,-0.000518
14.098,58.6602,-0.000518
14.113,58.6762,-0.000518
14.130,58.6935,-0.000518
14.145,58.7093,-0.000518
14.162,58.7258,-0.000546
14.177,58.7416,-0.000546
14.195,58.7588,-0.000546
14.214,58.7773,-0.000546
14.245,58.8072,-0.000546
14.260,58.8215,-0.000546
14.276,58.8361,-0.000546
14.307,58.8644,-0.000546
14.324,58.8799,-0.000546
14.354,58.9059,-0.000546
14.369,58.9193,-0.000546
14.386,58.9341,-0.000546
14.402,58.9467,-0.000546
14.418,58.9596,-0.000640
14.434,58.9725,-0.000640
14.450,58.9853,-0.000640
14.465,58.9976,-0.000640
14.482,59.0104,-0.000640
14.497,59.0221,-0.000640
14.514,59.0352,-0.000640
14.529,59.0459,-0.000640
14.545,59.0575,-0.000640
14.562,59.0699,-0.000640
14.578,59.0805,-0.000640
14.593,59.0912,-0.000640
14.609,59.1021,-0.000640
14.632,59.1173,-0.000640
14.661,59.1361,-0.000668
14.678,59.1467,-0.000668
14.695,59.1571,-0.000668
14.724,59.1744,-0.000668
14.743,59.1850,-0.000668
14.759,59.1942,-0.000668
14.774,59.2026,-0.000668
14.791,59.2114,-0.000668
14.806,59.2196,-0.000668
14.823,59.2283,-0.000668
14.838,59.2360,-0.000668
14.854,59.2439,-0.000668
14.870,59.2516,-0.000668
14.887,59.2593,-0.000668
14.902,59.2663,-0.000668
14.918,59.2734,-0.000668
14.934,59.2804,-0.000668
14.951,59.2875,-0.000668
14.966,59.2935,-0.000668
14.982,59.2998,-0.000668
14.999,59.3065,-0.000668
15.017,59.3128,-0.000668
15.047,59.3239,-0.000668
15.063,59.3290,-0.000668
15.081,59.3349,-0.000668
15.097,59.3395,-0.000668
15.126,59.3483,-0.000668
15.142,59.3525,-0.000668
15.158,59.3567,-0.000668
15.187,59.3638,-0.000650
15.204,59.3675,-0.000650
15.219,59.3709,-0.000650
15.235,59.3742,-0.000650
15.251,59.3772,-0.000650
15.267,59.3802,-0.000650
15.284,59.3832,-0.000650
15.312,59.3871,-0.000650
15.331,59.3896,-0.000650
15.347,59.3916,-0.000650
15.363,59.3933,-0.000650
15.379,59.3948,-0.000650
15.395,59.3962,-0.000650
15.411,59.3973,-0.000687
15.427,59.3982,-0.000687
15.443,59.3989,-0.000687
15.459,59.3995,-0.000687
15.475,59.3999,-0.000687
15.491,59.4000,-0.000687
15.507,59.4000,-0.000687
15.523,59.4000,-0.000687
15.539,59.4000,-0.000687
15.555,59.4000,-0.000687
15.572,59.4000,-0.000687
15.587,59.4000,-0.000687
15.603,59.4000,-0.000687
15.619,59.4000,-0.000687
15.635,59.4000,-0.000687
15.651,59.4000,-0.000828
15.667,59.4000,-0.000828
15.684,59.4000,-0.000828
15.700,59.4000,-0.000828
15.715,59.4000,-0.000828
15.743,59.4000,-0.000828
15.759,59.4000,-0.000828
15.775,59.4000,-0.000828
15.791,59.4000,-0.000828
15.807,59.4000,-0.000828
15.823,59.4000,-0.000828
15.839,59.4000,-0.000828
15.855,59.4000,-0.000828
15.872,59.4000,-0.000828
15.902,59.4000,-0.000913
15.919,59.4000,-0.000913
15.937,59.4000,-0.000913
15.963,59.4000,-0.000913
15.983,59.4000,-0.000913
15.999,59.4000,-0.000913
16.016,59.4000,-0.000913
16.040,59.4000,-0.000913
16.071,59.4000,-0.000913
16.087,59.4000,-0.000913
16.103,59.4000,-0.000913
16.133,59.4000,-0.000913
16.163,59.4000,-0.000913
16.179,59.4000,-0.000913
16.209,59.4000,-0.000913
16.241,59.4000,-0.000913
16.271,59.4000,-0.000913
16.299,59.4000,-0.000913
16.315,59.4000,-0.000913
16.331,59.4000,-0.000913
16.347,59.4000,-0.000913
16.363,59.4000,-0.000913
16.379,59.4000,-0.000913
16.394,59.4000,-0.000819
16.410,59.4000,-0.000819
16.427,59.4000,-0.000819
16.443,59.4000,-0.000819
16.459,59.4000,-0.000819
16.475,59.4000,-0.000819
16.491,59.4000,-0.000819
16.506,59.4000,-0.000819
16.524,59.4000,-0.000819
16.539,59.4000,-0.000819
16.556,59.4000,-0.000819
16.571,59.4000,-0.000819
16.586,59.4000,-0.000819
16.603,59.4000,-0.000819
16.619,59.4000,-0.000819
16.634,59.4000,-0.000791
16.651,59.4000,-0.000791
16.667,59.4000,-0.000791
16.683,59.4000,-0.000791
16.698,59.4000,-0.000791
16.715,59.4000,-0.000791
16.731,59.4000,-0.000791
16.753,59.4000,-0.000791
16.783,59.4000,-0.000791
16.813,59.4000,-0.000791
16.844,59.4000,-0.000791
16.876,59.4000,-0.000791
16.891,59.4000,-0.000772
16.906,59.4000,-0.000772
16.924,59.4000,-0.000772
16.954,59.4000,-0.000772
16.970,59.4000,-0.000772
16.986,59.4000,-0.000772
17.003,59.4000,-0.000772
17.019,59.4000,-0.000772
17.035,59.4000,-0.000772
17.052,59.4000,-0.000772
17.078,59.4000,-0.000772
17.098,59.4000,-0.000772
17.114,59.4000,-0.000772
17.130,59.4000,-0.000772
17.146,59.4000,-0.000800
17.163,59.4000,-0.000800
17.179,59.4000,-0.000800
17.194,59.4000,-0.000800
17.211,59.4000,-0.000800
17.227,59.4000,-0.000800
17.243,59.4000,-0.000800
17.259,59.4000,-0.000800
17.274,59.4000,-0.000800
17.291,59.4000,-0.000800
17.306,59.4000,-0.000800
17.323,59.4000,-0.000800
17.353,59.4000,-0.000800
17.369,59.4000,-0.000800
17.384,59.4000,-0.000866
17.400,59.4000,-0.000866
17.425,59.4000,-0.000866
17.440,59.4000,-0.000866
17.463,59.4000,-0.000866
17.481,59.4000,-0.000866
17.510,59.4000,-0.000866
17.528,59.4000,-0.000866
17.545,59.4000,-0.000866
17.561,59.4000,-0.000866
17.577,59.4000,-0.000866
17.593,59.4000,-0.000866
17.608,59.4000,-0.000866
17.625,59.4000,-0.000866
17.640,59.4000,-0.000847
17.656,59.4000,-0.000847
17.673,59.4000,-0.000847
17.688,59.4000,-0.000847
17.704,59.4000,-0.000847
17.720,59.4000,-0.000847
17.740,59.4000,-0.000847
17.757,59.4000,-0.000847
17.773,59.4000,-0.000847
17.789,59.4000,-0.000847
17.804,59.4000,-0.000847
17.835,59.4000,-0.000847
17.852,59.4000,-0.000847
17.882,59.4000,-0.000847
17.909,59.4000,-0.000819
17.926,59.4000,-0.000819
17.941,59.4000,-0.000819
17.958,59.4000,-0.000819
17.973,59.4000,-0.000819
17.990,59.4000,-0.000819
18.005,59.4000,-0.000819
18.021,59.4000,-0.000819
18.044,59.4000,-0.000819
18.070,59.4000,-0.000819
18.086,59.4000,-0.000819
18.101,59.4000,-0.000819
18.117,59.4000,-0.000819
18.133,59.4000,-0.000819
18.149,59.4000,-0.000819
18.166,59.4000,-0.000819
18.181,59.4000,-0.000819
18.197,59.4000,-0.000819
18.213,59.4000,-0.000819
18.229,59.4000,-0.000819
18.245,59.4000,-0.000819
18.261,59.4000,-0.000819
18.277,59.4000,-0.000819
18.293,59.4000,-0.000819
18.309,59.4000,-0.000819
18.325,59.4000,-0.000819
18.341,59.4000,-0.000819
18.357,59.4000,-0.000819
18.374,59.4000,-0.000819
18.389,59.4000,-0.000922
18.405,59.4000,-0.000922
18.421,59.4000,-0.000922
18.437,59.4000,-0.000922
18.459,59.4000,-0.000922
18.475,59.4000,-0.000922
18.491,59.4000,-0.000922
18.507,59.4000,-0.000922
18.523,59.4000,-0.000922
18.539,59.4000,-0.000922
18.555,59.4000,-0.000922
18.571,59.4000,-0.000922
18.587,59.4000,-0.000922
18.603,59.4000,-0.000922
18.619,59.4000,-0.000922
18.635,59.4000,-0.000922
18.651,59.4000,-0.000922
18.667,59.4000,-0.000894
18.683,59.4000,-0.000894
18.699,59.4000,-0.000894
18.716,59.4000,-0.000894
18.731,59.4000,-0.000894
18.748,59.4000,-0.000894
18.775,59.4000,-0.000894
18.795,59.4000,-0.000894
18.811,59.4000,-0.000894
18.828,59.4000,-0.000894
18.843,59.4000,-0.000894
18.859,59.4000,-0.000894
18.875,59.4000,-0.000894
18.891,59.4000,-0.000894
18.907,59.4000,-0.000810
18.923,59.4000,-0.000810
18.939,59.4000,-0.000810
18.955,59.4000,-0.000810
18.971,59.4000,-0.000810
18.992,59.4000,-0.000810
19.008,59.4000,-0.000810
19.024,59.4000,-0.000810
19.040,59.4000,-0.000810
19.056,59.4000,-0.000810
19.072,59.4000,-0.000810
19.088,59.4000,-0.000810
19.104,59.4000,-0.000810
19.125,59.4000,-0.000810
19.150,59.4000,-0.000810
19.168,59.4000,-0.000810
19.184,59.4000,-0.000847
19.200,59.4000,-0.000847
19.216,59.4000,-0.000847
19.232,59.4000,-0.000847
19.248,59.4000,-0.000847
19.264,59.4000,-0.000847
19.280,59.4000,-0.000847
19.296,59.4000,-0.000847
19.312,59.4000,-0.000847
19.328,59.4000,-0.000847
19.344,59.4000,-0.000847
19.360,59.4000,-0.000847
19.376,59.4000,-0.000847
19.392,59.4000,-0.000979
19.408,59.4000,-0.000979
19.424,59.4000,-0.000979
19.441,59.4000,-0.000979
19.471,59.4000,-0.000979
19.494,59.4000,-0.000979
19.520,59.4000,-0.000979
19.548,59.4000,-0.000979
19.567,59.4000,-0.000979
19.582,59.4000,-0.000979
19.599,59.4000,-0.000979
19.619,59.4000,-0.000979
19.640,59.4000,-0.000979
19.672,59.4000,-0.000960
19.702,59.4000,-0.000960
19.732,59.3999,-0.000960
19.763,59.3992,-0.000960
19.793,59.3977,-0.000960
19.809,59.3967,-0.000960
19.840,59.3942,-0.000960
19.855,59.3927,-0.000960
19.871,59.3909,-0.000960
19.886,59.3890,-0.000922
19.902,59.3868,-0.000922
19.925,59.3833,-0.000922
19.948,59.3796,-0.000922
19.966,59.3762,-0.000922
19.983,59.3729,-0.000922
20.000,59.3694,-0.000922
20.019,59.3648,-0.000922
20.040,59.3602,-0.000922
20.071,59.3522,-0.000922
20.101,59.3437,-0.000922
20.117,59.3388,-0.000922
20.147,59.3293,-0.000847
20.162,59.3245,-0.000847
20.192,59.3141,-0.000847
20.207,59.3085,-0.000847
20.222,59.3026,-0.000847
20.247,59.2929,-0.000847
20.270,59.2837,-0.000847
20.287,59.2764,-0.000847
20.303,59.2692,-0.000847
20.319,59.2622,-0.000847
20.335,59.2548,-0.000847
20.351,59.2470,-0.000847
20.377,59.2342,-0.000847
20.398,59.2237,-0.000659
20.414,59.2152,-0.000659
20.431,59.2062,-0.000659
20.447,59.1978,-0.000659
20.462,59.1888,-0.000659
20.478,59.1798,-0.000659
20.494,59.1703,-0.000659
20.510,59.1609,-0.000659
20.526,59.1510,-0.000659
20.542,59.1412,-0.000659
20.558,59.1310,-0.000659
20.575,59.1207,-0.000659
20.605,59.1004,-0.000659
20.621,59.0896,-0.000659
20.637,59.0786,-0.000565
20.653,59.0673,-0.000565
20.670,59.0548,-0.000565
20.701,59.0319,-0.000565
20.717,59.0200,-0.000565
20.734,59.0075,-0.000565
20.749,58.9957,-0.000565
20.766,58.9824,-0.000565
20.781,58.9702,-0.000565
20.798,58.9566,-0.000565
20.813,58.9440,-0.000565
20.830,58.9297,-0.000565
20.845,58.9171,-0.000565
20.862,58.9025,-0.000565
20.889,58.8789,-0.000537
20.909,58.8609,-0.000537
20.926,58.8455,-0.000537
20.942,58.8313,-0.000537
20.957,58.8168,-0.000537
20.973,58.8015,-0.000537
20.991,58.7843,-0.000537
21.012,58.7630,-0.000537
21.027,58.7489,-0.000537
21.058,58.7174,-0.000537
21.088,58.6869,-0.000537
21.105,58.6692,-0.000537
21.136,58.6356,-0.000537
21.162,58.6078,-0.000489
21.177,58.5910,-0.000489
21.193,58.5732,-0.000489
21.209,58.5554,-0.000489
21.225,58.5372,-0.000489
21.241,58.5192,-0.000489
21.257,58.5009,-0.000489
21.273,58.4820,-0.000489
21.289,58.4630,-0.000489
21.305,58.4437,-0.000489
21.321,58.4231,-0.000489
21.337,58.4046,-0.000489
21.353,58.3844,-0.000489
21.369,58.3649,-0.000489
21.385,58.3453,-0.000471
21.402,58.3236,-0.000471
21.417,58.3037,-0.000471
21.433,58.2836,-0.000471
21.450,58.2615,-0.000471
21.465,58.2418,-0.000471
21.483,58.2175,-0.000471
21.507,58.1856,-0.000471
21.537,58.1429,-0.000471
21.568,58.1008,-0.000471
21.583,58.0789,-0.000471
21.599,58.0570,-0.000471
21.614,58.0349,-0.000471
21.629,58.0135,-0.000471
21.645,57.9905,-0.000442
21.677,57.9434,-0.000442
21.693,57.9201,-0.000442
21.718,57.8821,-0.000442
21.734,57.8582,-0.000442
21.750,57.8336,-0.000442
21.766,57.8086,-0.000442
21.782,57.7841,-0.000442
21.799,57.7567,-0.000442
21.815,57.7318,-0.000442
21.830,57.7061,-0.000442
21.846,57.6818,-0.000442
21.862,57.6569,-0.000442
21.878,57.6305,-0.000442
21.894,57.6033,-0.000442
21.910,57.5770,-0.000442
21.927,57.5495,-0.000405
21.954,57.5024,-0.000405
21.978,57.4632,-0.000405
22.000,57.4243,-0.000405
22.016,57.3966,-0.000405
22.047,57.3431,-0.000405
22.062,57.3163,-0.000405
22.078,57.2882,-0.000405
22.109,57.2327,-0.000405
22.124,57.2042,-0.000405
22.140,57.1754,-0.000405
22.155,57.1457,-0.000405
22.186,57.0902,-0.000367
22.217,57.0298,-0.000367
22.233,57.0001,-0.000367
22.259,56.9516,-0.000367
22.275,56.9212,-0.000367
22.290,56.8892,-0.000367
22.307,56.8590,-0.000367
22.322,56.8275,-0.000367
22.339,56.7945,-0.000367
22.355,56.7640,-0.000367
22.370,56.7308,-0.000367
22.387,56.6983,-0.000367
22.403,56.6661,-0.000226
22.418,56.6351,-0.000226
22.435,56.6006,-0.000226
22.450,56.5686,-0.000226
22.466,56.5353,-0.000226
22.483,56.5015,-0.000226
22.499,56.4679,-0.000226
22.515,56.4331,-0.000226
22.530,56.4013,-0.000226
22.547,56.3642,-0.000226
22.563,56.3318,-0.000226
22.579,56.2983,-0.000226
22.594,56.2652,-0.000226
22.611,56.2306,-0.000226
22.627,56.1969,-0.000226
22.642,56.1653,-0.000104
22.658,56.1321,-0.000104
22.674,56.0996,-0.000104
22.694,56.0580,-0.000104
22.711,56.0232,-0.000104
22.727,55.9940,-0.000104
22.743,55.9616,-0.000104
22.758,55.9305,-0.000104
22.789,55.8716,-0.000104
22.805,55.8382,-0.000104
22.835,55.7809,-0.000104
22.851,55.7505,-0.000104
22.868,55.7191,-0.000104
22.883,55.6894,-0.000104
22.899,55.6606,-0.000151
22.915,55.6297,-0.000151
22.943,55.5792,-0.000151
22.962,55.5438,-0.000151
22.978,55.5144,-0.000151
22.996,55.4816,-0.000151
23.020,55.4393,-0.000151
23.036,55.4117,-0.000151
23.052,55.3828,-0.000151
23.083,55.3288,-0.000151
23.113,55.2772,-0.000151
23.145,55.2230,-0.000169
23.175,55.1729,-0.000169
23.191,55.1466,-0.000169
23.221,55.0973,-0.000169
23.236,55.0722,-0.000169
23.268,55.0224,-0.000169
23.298,54.9739,-0.000169
23.323,54.9353,-0.000169
23.338,54.9116,-0.000169
23.354,54.8876,-0.000169
23.370,54.8631,-0.000169
23.387,54.8388,-0.000169
23.402,54.8154,-0.000132
23.418,54.7914,-0.000132
23.435,54.7664,-0.000132
23.458,54.7325,-0.000132
23.484,54.6957,-0.000132
23.514,54.6530,-0.000132
23.531,54.6297,-0.000132
23.546,54.6089,-0.000132
23.563,54.5852,-0.000132
23.578,54.5647,-0.000132
23.595,54.5422,-0.000132
23.610,54.5221,-0.000132
23.626,54.5006,-0.000132
23.642,54.4798,-0.000132
23.658,54.4591,-0.000537
23.674,54.4385,-0.000537
23.691,54.4169,-0.000537
23.706,54.3978,-0.000537
23.722,54.3776,-0.000537
23.738,54.3579,-0.000537
23.754,54.3373,-0.000537
23.770,54.3185,-0.000537
23.786,54.2993,-0.000537
23.803,54.2785,-0.000537
23.822,54.2569,-0.000537
23.837,54.2390,-0.000537
23.869,54.2013,-0.000537
23.899,54.1686,-0.000922
23.929,54.1350,-0.000922
23.946,54.1168,-0.000922
23.963,54.0991,-0.000922
23.979,54.0819,-0.000922
23.996,54.0645,-0.000922
24.022,54.0368,-0.000922
24.042,54.0172,-0.000922
24.058,54.0010,-0.000922
24.074,53.9854,-0.000922
24.090,53.9700,-0.000922
24.106,53.9543,-0.000922
24.122,53.9392,-0.000922
24.138,53.9238,-0.000847
24.154,53.9094,-0.000847
24.170,53.8945,-0.000847
24.188,53.8786,-0.000847
24.208,53.8599,-0.000847
24.239,53.8336,-0.000847
24.255,53.8200,-0.000847
24.286,53.7945,-0.000847
24.321,53.7656,-0.000847
24.347,53.7457,-0.000847
24.364,53.7329,-0.000847
24.394,53.7106,-0.000847
24.419,53.6922,-0.000762
24.435,53.6809,-0.000762
24.451,53.6698,-0.000762
24.467,53.6587,-0.000762
24.483,53.6473,-0.000762
24.499,53.6369,-0.000762
24.515,53.6267,-0.000762
24.531,53.6161,-0.000762
24.548,53.6060,-0.000762
24.563,53.5960,-0.000762
24.579,53.5869,-0.000762
24.595,53.5770,-0.000762
24.611,53.5681,-0.000762
24.627,53.5589,-0.000762
24.643,53.5501,-0.000800
24.659,53.5412,-0.000800
24.675,53.5327,-0.000800
24.691,53.5245,-0.000800
24.707,53.5161,-0.000800
24.723,53.5083,-0.000800
24.739,53.5009,-0.000800
24.755,53.4932,-0.000800
24.771,53.4856,-0.000800
24.787,53.4784,-0.000800
24.803,53.4718,-0.000800
24.819,53.4650,-0.000800
24.835,53.4582,-0.000800
24.851,53.4520,-0.000800
24.867,53.4459,-0.000800
24.883,53.4398,-0.000800
24.899,53.4340,-0.000800
24.916,53.4279,-0.000800
24.946,53.4180,-0.000922
24.961,53.4132,-0.000922
24.977,53.4083,-0.000922
24.993,53.4039,-0.000922
25.010,53.3990,-0.000922
25.027,53.3946,-0.000922
25.042,53.3905,-0.000922
25.073,53.3834,-0.000922
25.095,53.3786,-0.000922
25.119,53.3737,-0.000922
25.137,53.3705,-0.000922
25.153,53.3679,-0.000922
25.169,53.3653,-0.000960
25.184,53.3631,-0.000960
25.202,53.3607,-0.000960
25.217,53.3589,-0.000960
25.233,53.3571,-0.000960
25.248,53.3556,-0.000960
25.265,53.3541,-0.000960
25.281,53.3530,-0.000960
25.296,53.3520,-0.000960
25.313,53.3513,-0.000960
25.329,53.3507,-0.000960
25.350,53.3502,-0.000960
25.366,53.3500,-0.000960
25.397,53.3500,-0.000960
25.428,53.3500,-0.000941
25.458,53.3500,-0.000941
25.473,53.3500,-0.000941
25.500,53.3500,-0.000941
25.517,53.3500,-0.000941
25.532,53.3500,-0.000941
25.548,53.3500,-0.000941
25.564,53.3503,-0.000941
25.580,53.3507,-0.000941
25.597,53.3513,-0.000941
25.613,53.3520,-0.000941
25.630,53.3530,-0.000941
25.657,53.3553,-0.000857
25.676,53.3570,-0.000857
25.692,53.3587,-0.000857
25.708,53.3607,-0.000857
25.724,53.3628,-0.000857
25.741,53.3652,-0.000857
25.756,53.3677,-0.000857
25.773,53.3705,-0.000857
25.799,53.3752,-0.000857
25.831,53.3819,-0.000857
25.852,53.3869,-0.000857
25.869,53.3907,-0.000857
25.885,53.3948,-0.000857
25.900,53.3990,-0.000932
25.917,53.4035,-0.000932
25.932,53.4081,-0.000932
25.948,53.4130,-0.000932
25.964,53.4179,-0.000932
25.981,53.4233,-0.000932
25.997,53.4287,-0.000932
26.024,53.4384,-0.000932
26.039,53.4442,-0.000932
26.056,53.4504,-0.000932
26.072,53.4568,-0.000932
26.088,53.4635,-0.000932
26.109,53.4723,-0.000932
26.125,53.4793,-0.000932
26.141,53.4868,-0.000932
26.171,53.5006,-0.000988
26.207,53.5180,-0.000988
26.233,53.5315,-0.000988
26.248,53.5397,-0.000988
26.279,53.5567,-0.000988
26.295,53.5655,-0.000988
26.312,53.5749,-0.000988
26.327,53.5841,-0.000988
26.343,53.5938,-0.000988
26.359,53.6035,-0.000988
26.375,53.6140,-0.000988
26.391,53.6240,-0.000988
26.407,53.6341,-0.000885
26.423,53.6447,-0.000885
26.439,53.6556,-0.000885
26.456,53.6670,-0.000885
26.471,53.6777,-0.000885
26.487,53.6890,-0.000885
26.504,53.7013,-0.000885
26.524,53.7163,-0.000885
26.540,53.7279,-0.000885
26.556,53.7405,-0.000885
26.571,53.7525,-0.000885
26.602,53.7764,-0.000885
26.634,53.8027,-0.000885
26.664,53.8278,-0.000875
26.683,53.8448,-0.000875
26.710,53.8675,-0.000875
26.727,53.8826,-0.000875
26.743,53.8971,-0.000875
26.759,53.9117,-0.000875
26.775,53.9270,-0.000875
26.791,53.9420,-0.000875
26.807,53.9571,-0.000875
26.823,53.9724,-0.000875
26.839,53.9883,-0.000875
26.855,54.0049,-0.000875
26.871,54.0196,-0.000875
26.887,54.0359,-0.000838
26.903,54.0529,-0.000838
26.919,54.0694,-0.000838
26.935,54.0860,-0.000838
26.951,54.1029,-0.000838
26.967,54.1202,-0.000838
26.983,54.1377,-0.000838
26.999,54.1548,-0.000838
27.015,54.1729,-0.000838
27.031,54.1908,-0.000838
27.047,54.2092,-0.000838
27.063,54.2270,-0.000838
27.079,54.2460,-0.000838
27.095,54.2646,-0.000838
27.111,54.2832,-0.000838
27.127,54.3023,-0.000838
27.143,54.3220,-0.000913
27.159,54.3414,-0.000913
27.176,54.3621,-0.000913
27.191,54.3807,-0.000913
27.209,54.4031,-0.000913
27.239,54.4423,-0.000913
27.255,54.4623,-0.000913
27.272,54.4847,-0.000913
27.288,54.5056,-0.000913
27.303,54.5255,-0.000913
27.320,54.5481,-0.000913
27.341,54.5773,-0.000913
27.366,54.6111,-0.000913
27.383,54.6344,-0.000913
27.399,54.6580,-0.000913
27.415,54.6793,-0.000913
27.431,54.7018,-0.000857
27.447,54.7252,-0.000857
27.463,54.7492,-0.000857
27.479,54.7715,-0.000857
27.494,54.7950,-0.000857
27.511,54.8194,-0.000857
27.527,54.8434,-0.000857
27.543,54.8672,-0.000857
27.559,54.8913,-0.000857
27.575,54.9165,-0.000857
27.591,54.9415,-0.000857
27.607,54.9655,-0.000857
27.639,55.0169,-0.000857
27.658,55.0469,-0.000857
27.675,55.0732,-0.000857
27.705,55.1241,-0.000857
27.721,55.1488,-0.000857
27.751,55.2001,-0.000857
27.782,55.2528,-0.000857
27.798,55.2789,-0.000857
27.814,55.3053,-0.000857
27.832,55.3362,-0.000857
27.859,55.3858,-0.000857
27.878,55.4173,-0.000857
27.899,55.4553,-0.000857
27.923,55.4989,-0.000857
27.942,55.5317,-0.000960
27.958,55.5624,-0.000960
27.974,55.5907,-0.000960
27.990,55.6213,-0.000960
28.005,55.6493,-0.000960
28.022,55.6816,-0.000960
28.042,55.7185,-0.000960
28.061,55.7562,-0.000960
28.092,55.8140,-0.000960
28.122,55.8742,-0.000960
28.153,55.9328,-0.000960
28.169,55.9641,-0.000960
28.185,55.9962,-0.000960
28.200,56.0270,-0.000988
28.216,56.0598,-0.000988
28.231,56.0896,-0.000988
28.247,56.1247,-0.000988
28.263,56.1551,-0.000988
28.279,56.1889,-0.000988
28.296,56.2237,-0.000988
28.327,56.2910,-0.000988
28.348,56.3334,-0.000988
28.374,56.3885,-0.000988
28.405,56.4534,-0.000988
28.422,56.4897,-0.000913
28.438,56.5214,-0.000913
28.454,56.5548,-0.000913
28.469,56.5867,-0.000913
28.485,56.6193,-0.000913
28.501,56.6519,-0.000913
28.518,56.6859,-0.000913
28.534,56.7168,-0.000913
28.549,56.7477,-0.000913
28.565,56.7795,-0.000913
28.582,56.8123,-0.000913
28.597,56.8423,-0.000913
28.613,56.8733,-0.000913
28.629,56.9042,-0.000913
28.645,56.9349,-0.000913
28.661,56.9655,-0.000913
28.692,57.0230,-0.000442
28.707,57.0518,-0.000442
28.723,57.0819,-0.000442
28.740,57.1118,-0.000442
28.756,57.1417,-0.000442
28.771,57.1696,-0.000442
28.787,57.1990,-0.000442
28.803,57.2278,-0.000442
28.820,57.2569,-0.000442
28.835,57.2843,-0.000442
28.851,57.3127,-0.000442
28.869,57.3437,-0.000442
28.899,57.3953,-0.000113
28.915,57.4237,-0.000113
28.933,57.4542,-0.000113
28.960,57.5005,-0.000113
28.979,57.5311,-0.000113
28.995,57.5587,-0.000113
29.011,57.5842,-0.000113
29.027,57.6096,-0.000113
29.043,57.6359,-0.000113
29.064,57.6690,-0.000113
29.084,57.7008,-0.000113
29.115,57.7495,-0.000113
29.130,57.7738,-0.000113
29.146,57.7980,-0.000254
29.176,57.8430,-0.000254
29.207,57.8896,-0.000254
29.234,57.9287,-0.000254
29.249,57.9514,-0.000254
29.265,57.9745,-0.000254
29.281,57.9977,-0.000254
29.297,58.0204,-0.000254
29.314,58.0437,-0.000254
29.329,58.0659,-0.000254
29.345,58.0881,-0.000254
29.362,58.1106,-0.000254
29.377,58.1314,-0.000254
29.394,58.1547,-0.000461
29.411,58.1765,-0.000461
29.439,58.2151,-0.000461
29.457,58.2383,-0.000461
29.473,58.2584,-0.000461
29.489,58.2790,-0.000461
29.505,58.3004,-0.000461
29.522,58.3198,-0.000461
29.537,58.3399,-0.000461
29.553,58.3585,-0.000461
29.570,58.3799,-0.000461
29.586,58.3980,-0.000461
29.601,58.4165,-0.000461
29.617,58.4355,-0.000461
29.634,58.4553,-0.000461
29.649,58.4727,-0.000461
29.665,58.4918,-0.000574
29.681,58.5092,-0.000574
29.698,58.5299,-0.000574
29.714,58.5460,-0.000574
29.729,58.5624,-0.000574
29.745,58.5800,-0.000574
29.761,58.5972,-0.000574
29.778,58.6155,-0.000574
29.809,58.6476,-0.000574
29.827,58.6657,-0.000574
29.856,58.6957,-0.000574
29.873,58.7122,-0.000574
29.889,58.7282,-0.000574
29.905,58.7428,-0.000574
29.922,58.7591,-0.000621
29.937,58.7731,-0.000621
29.958,58.7931,-0.000621
29.980,58.8125,-0.000621
30.001,58.8316,-0.000621
30.020,58.8479,-0.000621
30.042,58.8670,-0.000621
30.073,58.8931,-0.000621
30.089,58.9069,-0.000621
30.120,58.9321,-0.000621
30.136,58.9441,-0.000621
30.166,58.9676,-0.000621
30.182,58.9801,-0.000659
30.198,58.9913,-0.000659
30.214,59.0029,-0.000659
30.229,59.0143,-0.000659
30.245,59.0256,-0.000659
30.260,59.0359,-0.000659
30.285,59.0526,-0.000659
30.307,59.0669,-0.000659
30.338,59.0870,-0.000659
30.369,59.1065,-0.000659
30.399,59.1245,-0.000659
30.415,59.1335,-0.000640
30.446,59.1512,-0.000640
30.461,59.1592,-0.000640
30.493,59.1757,-0.000640
30.510,59.1844,-0.000640
30.539,59.1987,-0.000640
30.556,59.2066,-0.000640
30.572,59.2142,-0.000640
30.588,59.2213,-0.000640
30.604,59.2281,-0.000640
30.620,59.2348,-0.000640
30.638,59.2426,-0.000640
30.664,59.2527,-0.000574
30.684,59.2600,-0.000574
30.700,59.2660,-0.000574
30.716,59.2718,-0.000574
30.732,59.2768,-0.000574
30.748,59.2822,-0.000574
30.764,59.2872,-0.000574
30.780,59.2920,-0.000574
30.796,59.2967,-0.000574
30.817,59.3026,-0.000574
30.833,59.3066,-0.000574
30.849,59.3107,-0.000574
30.865,59.3143,-0.000574
30.882,59.3184,-0.000574
30.910,59.3243,-0.000621
30.929,59.3279,-0.000621
30.946,59.3308,-0.000621
30.961,59.3333,-0.000621
30.977,59.3358,-0.000621
30.993,59.3380,-0.000621
31.009,59.3401,-0.000621
31.025,59.3419,-0.000621
31.041,59.3436,-0.000621
31.057,59.3451,-0.000621
31.073,59.3463,-0.000621
31.088,59.3474,-0.000621
31.104,59.3483,-0.000621
31.121,59.3491,-0.000621
31.137,59.3497,-0.000621
31.152,59.3499,-0.000697
31.169,59.3501,-0.000697
31.185,59.3501,-0.000697
31.200,59.3501,-0.000697
31.216,59.3501,-0.000697
31.233,59.3501,-0.000697
31.248,59.3501,-0.000697
31.265,59.3501,-0.000697
31.280,59.3501,-0.000697
31.297,59.3501,-0.000697
31.313,59.3501,-0.000697
31.337,59.3501,-0.000697
31.353,59.3501,-0.000697
31.369,59.3501,-0.000697
31.385,59.3501,-0.000697
31.401,59.3501,-0.000753
31.417,59.3501,-0.000753
31.433,59.3501,-0.000753
31.449,59.3501,-0.000753
31.464,59.3501,-0.000753
31.481,59.3501,-0.000753
31.496,59.3501,-0.000753
31.513,59.3501,-0.000753
31.529,59.3501,-0.000753
31.544,59.3501,-0.000753
31.561,59.3501,-0.000753
31.576,59.3501,-0.000753
31.592,59.3501,-0.000753
31.609,59.3501,-0.000753
31.624,59.3501,-0.000753
31.640,59.3501,-0.000753
31.657,59.3501,-0.000800
31.672,59.3501,-0.000800
31.689,59.3501,-0.000800
31.704,59.3501,-0.000800
31.720,59.3501,-0.000800
31.736,59.3501,-0.000800
31.756,59.3501,-0.000800
31.781,59.3501,-0.000800
31.800,59.3501,-0.000800
31.819,59.3501,-0.000800
31.843,59.3501,-0.000800
31.866,59.3501,-0.000800
31.889,59.3501,-0.000800
31.920,59.3501,-0.000819
31.936,59.3501,-0.000819
31.968,59.3501,-0.000819
31.998,59.3501,-0.000819
32.019,59.3501,-0.000819
32.040,59.3501,-0.000819
32.056,59.3501,-0.000819
32.072,59.3501,-0.000819
32.088,59.3501,-0.000819
32.104,59.3501,-0.000819
32.120,59.3501,-0.000819
32.136,59.3501,-0.000819
32.153,59.3501,-0.000828
32.169,59.3501,-0.000828
32.185,59.3501,-0.000828
32.201,59.3501,-0.000828
32.217,59.3501,-0.000828
32.233,59.3501,-0.000828
32.249,59.3501,-0.000828
32.276,59.3501,-0.000828
32.296,59.3501,-0.000828
32.313,59.3501,-0.000828
32.328,59.3501,-0.000828
32.345,59.3501,-0.000828
32.360,59.3501,-0.000828
32.391,59.3501,-0.000828
32.408,59.3501,-0.000828
32.423,59.3501,-0.000866
32.439,59.3501,-0.000866
32.455,59.3501,-0.000866
32.471,59.3501,-0.000866
32.487,59.3501,-0.000866
32.507,59.3501,-0.000866
32.524,59.3501,-0.000866
32.540,59.3501,-0.000866
32.570,59.3501,-0.000866
32.600,59.3501,-0.000866
32.616,59.3501,-0.000866
32.631,59.3501,-0.000866
32.647,59.3501,-0.000894
32.663,59.3501,-0.000894
32.680,59.3501,-0.000894
32.695,59.3501,-0.000894
32.711,59.3501,-0.000894
32.727,59.3501,-0.000894
32.746,59.3501,-0.000894
32.772,59.3501,-0.000894
32.791,59.3501,-0.000894
32.808,59.3501,-0.000894
32.823,59.3501,-0.000894
32.839,59.3501,-0.000894
32.855,59.3501,-0.000894
32.873,59.3501,-0.000894
32.895,59.3501,-0.000894
32.910,59.3501,-0.000894
32.931,59.3501,-0.000857
32.947,59.3501,-0.000857
32.963,59.3501,-0.000857
32.979,59.3501,-0.000857
32.996,59.3501,-0.000857
33.017,59.3501,-0.000857
33.033,59.3501,-0.000857
33.064,59.3501,-0.000857
33.095,59.3501,-0.000857
33.112,59.3501,-0.000857
33.142,59.3501,-0.000838
33.173,59.3501,-0.000838
33.204,59.3501,-0.000838
33.219,59.3501,-0.000838
33.243,59.3501,-0.000838
33.266,59.3501,-0.000838
33.283,59.3501,-0.000838
33.300,59.3501,-0.000838
33.315,59.3501,-0.000838
33.331,59.3501,-0.000838
33.348,59.3501,-0.000838
33.363,59.3501,-0.000838
33.379,59.3501,-0.000838
33.395,59.3501,-0.000828
33.412,59.3501,-0.000828
33.431,59.3501,-0.000828
33.456,59.3501,-0.000828
33.472,59.3501,-0.000828
33.487,59.3501,-0.000828
33.503,59.3501,-0.000828
33.519,59.3501,-0.000828
33.545,59.3501,-0.000828
33.575,59.3501,-0.000828
33.606,59.3501,-0.000828
33.623,59.3501,-0.000828
33.652,59.3501,-0.000828
33.668,59.3501,-0.000847
33.699,59.3501,-0.000847
33.716,59.3501,-0.000847
33.746,59.3501,-0.000847
33.762,59.3501,-0.000847
33.793,59.3501,-0.000847
33.823,59.3501,-0.000847
33.839,59.3501,-0.000847
33.855,59.3501,-0.000847
33.871,59.3501,-0.000847
33.887,59.3501,-0.000847
33.903,59.3501,-0.000857
33.920,59.3501,-0.000857
33.935,59.3501,-0.000857
33.950,59.3501,-0.000857
33.967,59.3501,-0.000857
33.990,59.3501,-0.000857
34.005,59.3501,-0.000857
34.021,59.3501,-0.000857
34.038,59.3501,-0.000857
34.054,59.3501,-0.000857
34.070,59.3501,-0.000857
34.086,59.3501,-0.000857
34.102,59.3501,-0.000857
34.120,59.3501,-0.000857
34.145,59.3501,-0.000828
34.165,59.3501,-0.000828
34.181,59.3501,-0.000828
34.197,59.3501,-0.000828
34.213,59.3501,-0.000828
34.230,59.3501,-0.000828
34.246,59.3501,-0.000828
34.261,59.3501,-0.000828
34.278,59.3501,-0.000828
34.294,59.3501,-0.000828
34.311,59.3501,-0.000828
34.332,59.3501,-0.000828
34.347,59.3501,-0.000828
34.362,59.3501,-0.000828
34.378,59.3501,-0.000828
34.394,59.3501,-0.000847
34.425,59.3501,-0.000847
34.456,59.3501,-0.000847
34.471,59.3501,-0.000847
34.487,59.3501,-0.000847
34.502,59.3501,-0.000847
34.518,59.3501,-0.000847
34.546,59.3501,-0.000847
34.565,59.3501,-0.000847
34.595,59.3501,-0.000847
34.612,59.3501,-0.000847
34.642,59.3501,-0.000800
34.672,59.3501,-0.000800
34.688,59.3501,-0.000800
34.704,59.3501,-0.000800
34.720,59.3501,-0.000800
34.737,59.3501,-0.000800
34.765,59.3501,-0.000800
34.785,59.3501,-0.000800
34.801,59.3501,-0.000800
34.817,59.3501,-0.000800
34.832,59.3501,-0.000800
34.849,59.3501,-0.000800
34.865,59.3501,-0.000800
34.881,59.3501,-0.000800
34.896,59.3501,-0.000781
34.912,59.3501,-0.000781
34.929,59.3501,-0.000781
34.945,59.3501,-0.000781
34.961,59.3501,-0.000781
34.977,59.3501,-0.000781
34.996,59.3501,-0.000781
35.013,59.3501,-0.000781
35.044,59.3501,-0.000781
35.067,59.3501,-0.000781
35.083,59.3501,-0.000781
35.100,59.3501,-0.000781
35.115,59.3501,-0.000781
35.132,59.3501,-0.000781
35.147,59.3501,-0.000838
35.163,59.3501,-0.000838
35.179,59.3501,-0.000838
35.195,59.3501,-0.000838
35.211,59.3501,-0.000838
35.227,59.3501,-0.000838
35.243,59.3501,-0.000838
35.259,59.3501,-0.000838
35.275,59.3501,-0.000838
35.291,59.3501,-0.000838
35.308,59.3501,-0.000838
35.323,59.3501,-0.000838
35.340,59.3501,-0.000838
35.369,59.3501,-0.000838
35.388,59.3501,-0.000875
35.403,59.3501,-0.000875
35.419,59.3501,-0.000875
35.436,59.3501,-0.000875
35.451,59.3501,-0.000875
35.467,59.3501,-0.000875
35.484,59.3498,-0.000875
35.500,59.3494,-0.000875
35.524,59.3484,-0.000875
35.555,59.3467,-0.000875
35.570,59.3455,-0.000875
35.601,59.3425,-0.000875
35.632,59.3389,-0.000875
35.663,59.3343,-0.000875
35.693,59.3293,-0.000838
35.724,59.3236,-0.000838
35.755,59.3171,-0.000838
35.779,59.3114,-0.000838
35.795,59.3075,-0.000838
35.817,59.3016,-0.000838
35.835,59.2966,-0.000838
35.851,59.2923,-0.000838
35.867,59.2870,-0.000838
35.883,59.2823,-0.000838
35.902,59.2759,-0.000753
35.925,59.2679,-0.000753
35.956,59.2565,-0.000753
35.982,59.2464,-0.000753
36.002,59.2386,-0.000753
36.019,59.2317,-0.000753
36.034,59.2252,-0.000753
36.065,59.2113,-0.000753
36.095,59.1971,-0.000753
36.126,59.1822,-0.000753
36.147,59.1715,-0.000753
36.164,59.1623,-0.000753
36.187,59.1500,-0.000706
36.203,59.1406,-0.000706
36.219,59.1321,-0.000706
36.250,59.1135,-0.000706
36.268,59.1030,-0.000706
36.297,59.0848,-0.000706
36.328,59.0644,-0.000706
36.344,59.0538,-0.000706
36.374,59.0340,-0.000706
36.389,59.0228,-0.000706
36.420,59.0008,-0.000631
36.451,58.9784,-0.000631
36.467,58.9664,-0.000631
36.483,58.9540,-0.000631
36.499,58.9416,-0.000631
36.515,58.9286,-0.000631
36.531,58.9157,-0.000631
36.547,58.9031,-0.000631
36.563,58.8894,-0.000631
36.580,58.8750,-0.000631
36.595,58.8623,-0.000631
36.611,58.8489,-0.000631
36.627,58.8349,-0.000631
36.643,58.8201,-0.000631
36.659,58.8055,-0.000631
36.675,58.7916,-0.000631
36.691,58.7767,-0.000471
36.707,58.7618,-0.000471
36.723,58.7466,-0.000471
36.739,58.7308,-0.000471
36.757,58.7136,-0.000471
36.776,58.6948,-0.000471
36.805,58.6649,-0.000471
36.821,58.6481,-0.000471
36.837,58.6313,-0.000471
36.853,58.6148,-0.000471
36.884,58.5817,-0.000471
36.914,58.5499,-0.000414
36.931,58.5308,-0.000414
36.946,58.5133,-0.000414
36.963,58.4949,-0.000414
36.978,58.4773,-0.000414
36.995,58.4573,-0.000414
37.011,58.4393,-0.000414
37.027,58.4204,-0.000414
37.044,58.4004,-0.000414
37.059,58.3824,-0.000414
37.074,58.3634,-0.000414
37.090,58.3438,-0.000414
37.107,58.3221,-0.000414
37.126,58.2992,-0.000414
37.149,58.2708,-0.000414
37.178,58.2331,-0.000395
37.209,58.1918,-0.000395
37.233,58.1604,-0.000395
37.248,58.1393,-0.000395
37.265,58.1164,-0.000395
37.281,58.0951,-0.000395
37.296,58.0734,-0.000395
37.313,58.0495,-0.000395
37.329,58.0280,-0.000395
37.345,58.0053,-0.000395
37.360,57.9824,-0.000395
37.376,57.9600,-0.000395
37.394,57.9344,-0.000433
37.410,57.9087,-0.000433
37.440,57.8660,-0.000433
37.456,57.8411,-0.000433
37.472,57.8172,-0.000433
37.489,57.7906,-0.000433
37.504,57.7678,-0.000433
37.521,57.7413,-0.000433
37.537,57.7178,-0.000433
37.553,57.6921,-0.000433
37.570,57.6653,-0.000433
37.596,57.6223,-0.000433
37.616,57.5902,-0.000433
37.633,57.5620,-0.000433
37.650,57.5320,-0.000433
37.674,57.4952,-0.000433
37.706,57.4412,-0.000565
37.736,57.3890,-0.000565
37.766,57.3372,-0.000565
37.797,57.2833,-0.000565
37.829,57.2260,-0.000565
37.858,57.1728,-0.000565
37.874,57.1423,-0.000565
37.904,57.0879,-0.000358
37.920,57.0582,-0.000358
37.938,57.0232,-0.000358
37.954,56.9960,-0.000358
37.982,56.9421,-0.000358
38.002,56.9037,-0.000358
38.017,56.8752,-0.000358
38.044,56.8222,-0.000358
38.064,56.7826,-0.000358
38.081,56.7490,-0.000358
38.107,56.6972,-0.000358
38.131,56.6477,-0.000358
38.146,56.6183,-0.000358
38.168,56.5744,-0.000358
38.184,56.5423,-0.000169
38.200,56.5073,-0.000169
38.231,56.4429,-0.000169
38.247,56.4104,-0.000169
38.262,56.3766,-0.000169
38.277,56.3458,-0.000169
38.308,56.2799,-0.000169
38.339,56.2150,-0.000169
38.369,56.1511,-0.000169
38.400,56.0863,-0.000132
38.416,56.0547,-0.000132
38.433,56.0218,-0.000132
38.449,55.9879,-0.000132
38.465,55.9559,-0.000132
38.480,55.9260,-0.000132
38.499,55.8884,-0.000132
38.524,55.8389,-0.000132
38.544,55.7998,-0.000132
38.562,55.7654,-0.000132
38.586,55.7193,-0.000132
38.601,55.6902,-0.000132
38.639,55.6182,-0.000132
38.656,55.5847,-0.000132
38.672,55.5574,-0.000132
38.688,55.5269,-0.000132
38.704,55.4976,-0.000132
38.720,55.4687,-0.000132
38.736,55.4402,-0.000132
38.752,55.4113,-0.000132
38.768,55.3835,-0.000132
38.785,55.3533,-0.000132
38.800,55.3269,-0.000132
38.816,55.2981,-0.000132
38.832,55.2710,-0.000132
38.860,55.2232,-0.000132
38.876,55.1949,-0.000132
38.892,55.1688,-0.000169
38.908,55.1421,-0.000169
38.924,55.1150,-0.000169
38.941,55.0876,-0.000169
38.956,55.0619,-0.000169
38.972,55.0368,-0.000169
38.996,54.9977,-0.000169
39.018,54.9635,-0.000169
39.036,54.9327,-0.000169
39.053,54.9073,-0.000169
39.080,54.8656,-0.000169
39.100,54.8349,-0.000169
39.116,54.8112,-0.000169
39.132,54.7866,-0.000169
39.148,54.7633,-0.000113
39.164,54.7396,-0.000113
39.181,54.7148,-0.000113
39.203,54.6824,-0.000113
39.218,54.6606,-0.000113
39.249,54.6169,-0.000113
39.280,54.5729,-0.000113
39.310,54.5312,-0.000113
39.326,54.5100,-0.000113
39.341,54.4896,-0.000113
39.372,54.4480,-0.000113
39.388,54.4279,-0.000113
39.416,54.3907,-0.000555
39.431,54.3718,-0.000555
39.447,54.3513,-0.000555
39.463,54.3313,-0.000555
39.481,54.3085,-0.000555
39.497,54.2905,-0.000555
39.527,54.2529,-0.000555
39.544,54.2330,-0.000555
39.573,54.1995,-0.000555
39.591,54.1779,-0.000555
39.607,54.1587,-0.000555
39.622,54.1417,-0.000555
39.640,54.1223,-0.000960
39.665,54.0941,-0.000960
39.689,54.0683,-0.000960
39.712,54.0441,-0.000960
39.743,54.0106,-0.000960
39.759,53.9947,-0.000960
39.790,53.9633,-0.000960
39.821,53.9332,-0.000960
39.836,53.9179,-0.000960
39.853,53.9021,-0.000960
39.882,53.8745,-0.000960
39.898,53.8595,-0.000904
39.928,53.8318,-0.000904
39.959,53.8052,-0.000904
39.975,53.7908,-0.000904
39.991,53.7778,-0.000904
40.007,53.7635,-0.000904
40.023,53.7509,-0.000904
40.044,53.7327,-0.000904
40.067,53.7146,-0.000904
40.086,53.6997,-0.000904
40.103,53.6866,-0.000904
40.119,53.6746,-0.000904
40.135,53.6630,-0.000894
40.151,53.6512,-0.000894
40.167,53.6394,-0.000894
40.183,53.6281,-0.000894
40.199,53.6171,-0.000894
40.215,53.6060,-0.000894
40.230,53.5954,-0.000894
40.246,53.5848,-0.000894
40.263,53.5745,-0.000894
40.279,53.5640,-0.000894
40.295,53.5537,-0.000894
40.311,53.5441,-0.000894
40.327,53.5346,-0.000894
40.343,53.5252,-0.000894
40.358,53.5161,-0.000894
40.375,53.5067,-0.000894
40.391,53.4980,-0.001026
40.407,53.4896,-0.001026
40.422,53.4810,-0.001026
40.438,53.4730,-0.001026
40.458,53.4620,-0.001026
40.485,53.4499,-0.001026
40.502,53.4419,-0.001026
40.533,53.4279,-0.001026
40.548,53.4210,-0.001026
40.563,53.4149,-0.001026
40.579,53.4082,-0.001026
40.597,53.4013,-0.001026
40.628,53.3895,-0.001026
40.643,53.3839,-0.001054
40.659,53.3781,-0.001054
40.675,53.3729,-0.001054
40.692,53.3675,-0.001054
40.707,53.3627,-0.001054
40.724,53.3577,-0.001054
40.739,53.3533,-0.001054
40.756,53.3486,-0.001054
40.772,53.3442,-0.001054
40.788,53.3404,-0.001054
40.804,53.3364,-0.001054
40.820,53.3328,-0.001054
40.836,53.3293,-0.001054
40.851,53.3262,-0.001054
40.868,53.3230,-0.001054
40.884,53.3202,-0.001054
40.899,53.3174,-0.001054
40.916,53.3149,-0.000932
40.931,53.3127,-0.000932
40.947,53.3106,-0.000932
40.964,53.3086,-0.000932
40.979,53.3069,-0.000932
41.008,53.3043,-0.000932
41.027,53.3029,-0.000932
41.042,53.3020,-0.000932
41.058,53.3013,-0.000932
41.090,53.3003,-0.000932
41.106,53.3001,-0.000932
41.137,53.3001,-0.000932
41.156,53.3001,-0.000932
41.184,53.3001,-0.000932
41.200,53.3001,-0.000951
41.216,53.3001,-0.000951
41.232,53.3001,-0.000951
41.247,53.3001,-0.000951
41.264,53.3002,-0.000951
41.292,53.3007,-0.000951
41.311,53.3014,-0.000951
41.327,53.3023,-0.000951
41.343,53.3033,-0.000951
41.359,53.3045,-0.000951
41.376,53.3060,-0.000951
41.392,53.3075,-0.000951
41.408,53.3094,-0.000875
41.423,53.3114,-0.000875
41.439,53.3135,-0.000875
41.456,53.3161,-0.000875
41.471,53.3185,-0.000875
41.487,53.3211,-0.000875
41.503,53.3242,-0.000875
41.530,53.3296,-0.000875
41.546,53.3331,-0.000875
41.562,53.3368,-0.000875
41.578,53.3407,-0.000875
41.594,53.3446,-0.000875
41.610,53.3491,-0.000875
41.626,53.3534,-0.000875
41.643,53.3581,-0.000875
41.658,53.3628,-0.000838
41.674,53.3679,-0.000838
41.690,53.3732,-0.000838
41.706,53.3786,-0.000838
41.723,53.3844,-0.000838
41.740,53.3906,-0.000838
41.755,53.3964,-0.000838
41.776,53.4047,-0.000838
41.801,53.4149,-0.000838
41.820,53.4226,-0.000838
41.847,53.4349,-0.000838
41.866,53.4434,-0.000838
41.884,53.4515,-0.000838
41.910,53.4644,-0.000904
41.930,53.4748,-0.000904
41.946,53.4834,-0.000904
41.962,53.4918,-0.000904
41.978,53.5001,-0.000904
41.994,53.5093,-0.000904
42.010,53.5183,-0.000904
42.026,53.5279,-0.000904
42.042,53.5372,-0.000904
42.064,53.5503,-0.000904
42.080,53.5603,-0.000904
42.096,53.5704,-0.000904
42.112,53.5807,-0.000904
42.134,53.5957,-0.000904
42.151,53.6069,-0.000904
42.172,53.6215,-0.000913
42.192,53.6354,-0.000913
42.208,53.6472,-0.000913
42.224,53.6584,-0.000913
42.240,53.6706,-0.000913
42.256,53.6827,-0.000913
42.272,53.6953,-0.000913
42.288,53.7071,-0.000913
42.304,53.7199,-0.000913
42.320,53.7332,-0.000913
42.336,53.7458,-0.000913
42.352,53.7587,-0.000913
42.369,53.7735,-0.000913
42.385,53.7872,-0.000913
42.400,53.8000,-0.001007
42.416,53.8138,-0.001007
42.432,53.8284,-0.001007
42.448,53.8425,-0.001007
42.464,53.8574,-0.001007
42.479,53.8716,-0.001007
42.504,53.8953,-0.001007
42.530,53.9196,-0.001007
42.559,53.9472,-0.001007
42.576,53.9647,-0.001007
42.592,53.9807,-0.001007
42.620,54.0097,-0.001007
42.635,54.0257,-0.001007
42.651,54.0420,-0.001007
42.667,54.0591,-0.001007
42.684,54.0771,-0.001007
42.699,54.0939,-0.001007
42.716,54.1132,-0.001007
42.744,54.1445,-0.001007
42.767,54.1711,-0.001007
42.791,54.1976,-0.001007
42.811,54.2214,-0.001007
42.827,54.2413,-0.001007
42.843,54.2590,-0.001007
42.859,54.2786,-0.001007
42.875,54.2987,-0.001007
42.891,54.3192,-0.000951
42.907,54.3376,-0.000951
42.923,54.3584,-0.000951
42.939,54.3802,-0.000951
42.955,54.3989,-0.000951
42.971,54.4196,-0.000951
42.986,54.4405,-0.000951
43.004,54.4629,-0.000951
43.019,54.4829,-0.000951
43.036,54.5058,-0.000951
43.051,54.5270,-0.000951
43.067,54.5487,-0.000951
43.082,54.5701,-0.000951
43.099,54.5939,-0.000951
43.118,54.6212,-0.000951
43.143,54.6551,-0.000951
43.158,54.6777,-0.000951
43.175,54.7017,-0.000885
43.191,54.7250,-0.000885
43.207,54.7482,-0.000885
43.223,54.7720,-0.000885
43.239,54.7960,-0.000885
43.255,54.8210,-0.000885
43.270,54.8438,-0.000885
43.286,54.8686,-0.000885
43.305,54.8971,-0.000885
43.334,54.9436,-0.000885
43.351,54.9692,-0.000885
43.366,54.9951,-0.000885
43.383,55.0205,-0.000885
43.399,55.0466,-0.000875
43.415,55.0738,-0.000875
43.436,55.1080,-0.000875
43.462,55.1501,-0.000875
43.479,55.1796,-0.000875
43.495,55.2061,-0.000875
43.510,55.2325,-0.000875
43.527,55.2608,-0.000875
43.542,55.2875,-0.000875
43.558,55.3154,-0.000875
43.574,55.3435,-0.000875
43.590,55.3718,-0.000875
43.607,55.4006,-0.000875
43.622,55.4289,-0.000875
43.639,55.4586,-0.000875
43.654,55.4868,-0.000875
43.671,55.5167,-0.000885
43.687,55.5461,-0.000885
43.703,55.5754,-0.000885
43.718,55.6047,-0.000885
43.734,55.6348,-0.000885
43.751,55.6667,-0.000885
43.766,55.6950,-0.000885
43.786,55.7324,-0.000885
43.814,55.7870,-0.000885
43.831,55.8190,-0.000885
43.846,55.8511,-0.000885
43.863,55.8819,-0.000885
43.879,55.9140,-0.000885
43.894,55.9449,-0.000904
43.910,55.9772,-0.000904
43.927,56.0110,-0.000904
43.942,56.0420,-0.000904
43.958,56.0747,-0.000904
43.975,56.1086,-0.000904
43.990,56.1403,-0.000904
44.006,56.1737,-0.000904
44.023,56.2087,-0.000904
44.038,56.2410,-0.000904
44.054,56.2745,-0.000904
44.071,56.3096,-0.000904
44.087,56.3438,-0.000904
44.102,56.3767,-0.000904
44.118,56.4107,-0.000904
44.134,56.4437,-0.000904
44.150,56.4774,-0.000904
44.166,56.5102,-0.000904
44.183,56.5432,-0.000904
44.198,56.5760,-0.000932
44.215,56.6088,-0.000932
44.233,56.6458,-0.000932
44.264,56.7074,-0.000932
44.281,56.7427,-0.000932
44.310,56.7972,-0.000932
44.327,56.8301,-0.000932
44.343,56.8600,-0.000932
44.360,56.8924,-0.000932
44.388,56.9468,-0.000932
44.406,56.9811,-0.000932
44.422,57.0106,-0.000555
44.438,57.0405,-0.000555
44.455,57.0712,-0.000555
44.471,57.0996,-0.000555
44.487,57.1293,-0.000555
44.502,57.1574,-0.000555
44.521,57.1904,-0.000555
44.543,57.2300,-0.000555
44.574,57.2862,-0.000555
44.590,57.3132,-0.000555
44.620,57.3646,-0.000555
44.637,57.3933,-0.000555
44.667,57.4443,-0.000217
44.683,57.4713,-0.000217
44.699,57.4988,-0.000217
44.723,57.5373,-0.000217
44.739,57.5634,-0.000217
44.755,57.5889,-0.000217
44.771,57.6143,-0.000217
44.787,57.6395,-0.000217
44.803,57.6653,-0.000217
44.819,57.6897,-0.000217
44.835,57.7147,-0.000217
44.851,57.7394,-0.000217
44.867,57.7644,-0.000217
44.883,57.7890,-0.000217
44.899,57.8141,-0.000217
44.915,57.8371,-0.000386
44.931,57.8599,-0.000386
44.947,57.8834,-0.000386
44.963,57.9074,-0.000386
44.979,57.9310,-0.000386
44.995,57.9531,-0.000386
45.012,57.9772,-0.000386
45.027,57.9989,-0.000386
45.043,58.0215,-0.000386
45.059,58.0425,-0.000386
45.075,58.0658,-0.000386
45.091,58.0864,-0.000386
45.107,58.1081,-0.000386
45.123,58.1294,-0.000386
45.139,58.1511,-0.000386
45.155,58.1721,-0.000386
45.171,58.1928,-0.000499
45.187,58.2135,-0.000499
45.203,58.2346,-0.000499
45.219,58.2534,-0.000499
45.235,58.2751,-0.000499
45.259,58.3042,-0.000499
45.275,58.3234,-0.000499
45.290,58.3415,-0.000499
45.306,58.3603,-0.000499
45.324,58.3830,-0.000499
45.351,58.4137,-0.000499
45.370,58.4350,-0.000499
45.386,58.4536,-0.000499
45.402,58.4711,-0.000499
45.418,58.4891,-0.000489
45.434,58.5077,-0.000489
45.450,58.5249,-0.000489
45.466,58.5415,-0.000489
45.482,58.5583,-0.000489
45.498,58.5752,-0.000489
45.514,58.5921,-0.000489
45.530,58.6086,-0.000489
45.546,58.6250,-0.000489
45.562,58.6409,-0.000489
45.578,58.6576,-0.000489
45.594,58.6724,-0.000489
45.610,58.6881,-0.000489
45.626,58.7034,-0.000489
45.642,58.7184,-0.000489
45.658,58.7332,-0.000480
45.674,58.7482,-0.000480
45.689,58.7622,-0.000480
45.706,58.7767,-0.000480
45.722,58.7915,-0.000480
45.737,58.8052,-0.000480
45.758,58.8226,-0.000480
45.785,58.8459,-0.000480
45.801,58.8579,-0.000480
45.817,58.8707,-0.000480
45.833,58.8841,-0.000480
45.849,58.8969,-0.000480
45.864,58.9085,-0.000480
45.881,58.9207,-0.000480
45.897,58.9333,-0.000480
45.913,58.9449,-0.000480
45.928,58.9562,-0.000518
45.945,58.9678,-0.000518
45.961,58.9791,-0.000518
45.976,58.9901,-0.000518
45.993,59.0014,-0.000518
46.009,59.0118,-0.000518
46.024,59.0221,-0.000518
46.040,59.0323,-0.000518
46.057,59.0423,-0.000518
46.073,59.0523,-0.000518
46.088,59.0621,-0.000518
46.106,59.0720,-0.000518
46.121,59.0809,-0.000518
46.136,59.0900,-0.000518
46.152,59.0989,-0.000518
46.169,59.1076,-0.000593
46.186,59.1169,-0.000593
46.205,59.1276,-0.000593
46.222,59.1357,-0.000593
46.246,59.1474,-0.000593
46.264,59.1561,-0.000593
46.280,59.1634,-0.000593
46.296,59.1705,-0.000593
46.321,59.1809,-0.000593
46.336,59.1876,-0.000593
46.352,59.1943,-0.000593
46.369,59.2005,-0.000593
46.384,59.2066,-0.000593
46.400,59.2125,-0.000593
46.416,59.2182,-0.000631
46.432,59.2238,-0.000631
46.448,59.2291,-0.000631
46.464,59.2342,-0.000631
46.482,59.2395,-0.000631
46.510,59.2481,-0.000631
46.528,59.2528,-0.000631
46.544,59.2569,-0.000631
46.561,59.2614,-0.000631
46.577,59.2650,-0.000631
46.592,59.2684,-0.000631
46.608,59.2718,-0.000631
46.624,59.2750,-0.000631
46.643,59.2787,-0.000631
46.665,59.2822,-0.000631
46.695,59.2869,-0.000668
46.726,59.2909,-0.000668
46.742,59.2926,-0.000668
46.772,59.2956,-0.000668
46.788,59.2967,-0.000668
46.819,59.2986,-0.000668
46.835,59.2993,-0.000668
46.856,59.2998,-0.000668
46.874,59.3001,-0.000668
46.898,59.3001,-0.000668
46.929,59.3001,-0.000734
46.944,59.3001,-0.000734
46.974,59.3001,-0.000734
47.006,59.3001,-0.000734
47.037,59.3001,-0.000734
47.067,59.3001,-0.000734
47.085,59.3001,-0.000734
47.114,59.3001,-0.000734
47.131,59.3001,-0.000734
47.162,59.3001,-0.000734
47.177,59.3001,-0.000819
47.192,59.3001,-0.000819
47.209,59.3001,-0.000819
47.239,59.3001,-0.000819
47.255,59.3001,-0.000819
47.272,59.3001,-0.000819
47.287,59.3001,-0.000819
47.303,59.3001,-0.000819
47.319,59.3001,-0.000819
47.336,59.3001,-0.000819
47.352,59.3001,-0.000819
47.367,59.3001,-0.000819
47.392,59.3001,-0.000819
47.409,59.3001,-0.000819
47.424,59.3001,-0.000885
47.440,59.3001,-0.000885
47.458,59.3001,-0.000885
47.487,59.3001,-0.000885
47.504,59.3001,-0.000885
47.522,59.3001,-0.000885
47.548,59.3001,-0.000885
47.568,59.3001,-0.000885
47.584,59.3001,-0.000885
47.601,59.3001,-0.000885
47.625,59.3001,-0.000885
47.656,59.3001,-0.000885
47.687,59.3001,-0.000894
47.717,59.3001,-0.000894
47.748,59.3001,-0.000894
47.778,59.3001,-0.000894
47.809,59.3001,-0.000894
47.825,59.3001,-0.000894
47.854,59.3001,-0.000894
47.872,59.3001,-0.000894
47.888,59.3001,-0.000894
47.904,59.3001,-0.000894
47.920,59.3001,-0.000894
47.945,59.3001,-0.000894
47.961,59.3001,-0.000894
47.977,59.3001,-0.000894
47.993,59.3001,-0.000894
48.009,59.3001,-0.000894
48.025,59.3001,-0.000894
48.041,59.3001,-0.000894
48.057,59.3001,-0.000894
48.073,59.3001,-0.000894
48.089,59.3001,-0.000894
48.105,59.3001,-0.000894
48.121,59.3001,-0.000894
48.137,59.3001,-0.000894
48.153,59.3001,-0.000885
48.169,59.3001,-0.000885
48.185,59.3001,-0.000885
48.201,59.3001,-0.000885
48.217,59.3001,-0.000885
48.233,59.3001,-0.000885
48.250,59.3001,-0.000885
48.276,59.3001,-0.000885
48.297,59.3001,-0.000885
48.315,59.3001,-0.000885
48.337,59.3001,-0.000885
48.353,59.3001,-0.000885
48.383,59.3001,-0.000885
48.414,59.3001,-0.000838
48.431,59.3001,-0.000838
48.461,59.3001,-0.000838
48.492,59.3001,-0.000838
48.508,59.3001,-0.000838
48.539,59.3001,-0.000838
48.555,59.3001,-0.000838
48.585,59.3001,-0.000838
48.601,59.3001,-0.000838
48.618,59.3001,-0.000838
48.647,59.3001,-0.000847
48.665,59.3001,-0.000847
48.682,59.3001,-0.000847
48.708,59.3001,-0.000847
48.729,59.3001,-0.000847
48.745,59.3001,-0.000847
48.762,59.3001,-0.000847
48.786,59.3001,-0.000847
48.817,59.3001,-0.000847
48.833,59.3001,-0.000847
48.864,59.3001,-0.000847
48.895,59.3001,-0.000875
48.925,59.3001,-0.000875
48.940,59.3001,-0.000875
48.956,59.3001,-0.000875
48.972,59.3001,-0.000875
49.004,59.3001,-0.000875
49.034,59.3001,-0.000875
49.049,59.3001,-0.000875
49.072,59.3001,-0.000875
49.095,59.3001,-0.000875
49.112,59.3001,-0.000875
49.129,59.3001,-0.000875
49.145,59.3001,-0.000894
49.161,59.3001,-0.000894
49.177,59.3001,-0.000894
49.192,59.3001,-0.000894
49.209,59.3001,-0.000894
49.225,59.3001,-0.000894
49.241,59.3001,-0.000894
49.257,59.3001,-0.000894
49.272,59.3001,-0.000894
49.288,59.3001,-0.000894
49.305,59.3001,-0.000894
49.321,59.3001,-0.000894
49.336,59.3001,-0.000894
49.352,59.3001,-0.000894
49.369,59.3001,-0.000894
49.385,59.3001,-0.000847
49.401,59.3001,-0.000847
49.416,59.3001,-0.000847
49.432,59.3001,-0.000847
49.449,59.3001,-0.000847
49.464,59.3001,-0.000847
49.480,59.3001,-0.000847
49.497,59.3001,-0.000847
49.512,59.3001,-0.000847
49.542,59.3001,-0.000847
49.558,59.3001,-0.000847
49.573,59.3001,-0.000847
49.590,59.3001,-0.000847
49.606,59.3001,-0.000847
49.622,59.3001,-0.000847
49.638,59.3001,-0.000838
49.653,59.3001,-0.000838
49.677,59.3001,-0.000838
49.700,59.3001,-0.000838
49.717,59.3001,-0.000838
49.734,59.3001,-0.000838
49.749,59.3001,-0.000838
49.765,59.3001,-0.000838
49.782,59.3001,-0.000838
49.797,59.3001,-0.000838
49.814,59.3001,-0.000838
49.830,59.3001,-0.000838
49.846,59.3001,-0.000838
49.862,59.3001,-0.000838
49.878,59.3001,-0.000838
49.893,59.3001,-0.000875
49.910,59.3001,-0.000875
49.926,59.3001,-0.000875
49.941,59.3001,-0.000875
49.957,59.3001,-0.000875
49.973,59.3001,-0.000875
49.990,59.3001,-0.000875
50.006,59.3001,-0.000875
50.021,59.3001,-0.000875
50.037,59.3001,-0.000875
50.053,59.3001,-0.000875
50.070,59.3001,-0.000875
50.098,59.3001,-0.000875
50.115,59.3001,-0.000875
50.131,59.3001,-0.000875
50.146,59.3001,-0.000894
50.163,59.3001,-0.000894
50.179,59.3001,-0.000894
50.211,59.3001,-0.000894
50.228,59.3001,-0.000894
50.258,59.3001,-0.000894
50.274,59.3001,-0.000894
50.291,59.3001,-0.000894
50.307,59.3001,-0.000894
50.323,59.3001,-0.000894
50.338,59.3001,-0.000894
50.360,59.3001,-0.000894
50.384,59.3001,-0.000894
50.402,59.3001,-0.000866
50.418,59.3001,-0.000866
50.434,59.3001,-0.000866
50.450,59.3001,-0.000866
50.466,59.3001,-0.000866
50.482,59.3001,-0.000866
50.498,59.3001,-0.000866
50.514,59.3001,-0.000866
50.530,59.3001,-0.000866
50.550,59.3001,-0.000866
50.566,59.3001,-0.000866
50.583,59.3001,-0.000866
50.598,59.3001,-0.000866
50.622,59.3001,-0.000866
50.638,59.3001,-0.000866
50.654,59.3001,-0.000828
50.670,59.3001,-0.000828
50.686,59.3001,-0.000828
50.702,59.3001,-0.000828
50.718,59.3001,-0.000828
50.734,59.3001,-0.000828
50.751,59.3001,-0.000828
50.766,59.3001,-0.000828
50.783,59.3001,-0.000828
50.798,59.3001,-0.000828
50.814,59.3001,-0.000828
50.830,59.3001,-0.000828
50.846,59.3001,-0.000828
50.862,59.3001,-0.000828
50.878,59.3001,-0.000828
50.894,59.3001,-0.000810
50.910,59.3001,-0.000810
50.926,59.3001,-0.000810
50.942,59.3001,-0.000810
50.958,59.3001,-0.000810
50.974,59.3001,-0.000810
50.990,59.3001,-0.000810
51.006,59.3001,-0.000810
51.022,59.3001,-0.000810
51.038,59.3001,-0.000810
51.054,59.3001,-0.000810
51.070,59.3001,-0.000810
51.086,59.3001,-0.000810
51.102,59.3001,-0.000810
51.118,59.3001,-0.000810
51.134,59.2999,-0.000810
51.157,59.2996,-0.000810
51.173,59.2990,-0.000810
51.189,59.2982,-0.000800
51.205,59.2972,-0.000800
51.223,59.2960,-0.000800
51.245,59.2940,-0.000800
51.260,59.2925,-0.000800
51.276,59.2905,-0.000800
51.306,59.2868,-0.000800
51.336,59.2821,-0.000800
51.367,59.2768,-0.000800
51.382,59.2738,-0.000800
51.399,59.2701,-0.000800
51.428,59.2639,-0.000687
51.445,59.2598,-0.000687
51.461,59.2557,-0.000687
51.477,59.2515,-0.000687
51.493,59.2469,-0.000687
51.509,59.2425,-0.000687
51.525,59.2374,-0.000687
51.541,59.2326,-0.000687
51.558,59.2270,-0.000687
51.573,59.2221,-0.000687
51.589,59.2165,-0.000687
51.605,59.2105,-0.000687
51.621,59.2047,-0.000687
51.637,59.1985,-0.000687
51.653,59.1918,-0.000687
51.668,59.1856,-0.000687
51.700,59.1722,-0.000650
51.716,59.1651,-0.000650
51.731,59.1579,-0.000650
51.749,59.1498,-0.000650
51.767,59.1412,-0.000650
51.798,59.1256,-0.000650
51.830,59.1086,-0.000650
51.860,59.0918,-0.000650
51.877,59.0824,-0.000650
51.892,59.0735,-0.000650
51.907,59.0644,-0.000659
51.924,59.0549,-0.000659
51.942,59.0436,-0.000659
51.968,59.0267,-0.000659
51.988,59.0142,-0.000659
52.004,59.0033,-0.000659
52.020,58.9921,-0.000659
52.036,58.9816,-0.000659
52.052,58.9705,-0.000659
52.068,58.9588,-0.000659
52.084,58.9475,-0.000659
52.099,58.9361,-0.000659
52.116,58.9239,-0.000659
52.131,58.9118,-0.000659
52.147,58.8995,-0.000650
52.164,58.8866,-0.000650
52.179,58.8739,-0.000650
52.195,58.8612,-0.000650
52.212,58.8480,-0.000650
52.227,58.8349,-0.000650
52.243,58.8212,-0.000650
52.260,58.8068,-0.000650
52.275,58.7937,-0.000650
52.291,58.7797,-0.000650
52.307,58.7653,-0.000650
52.323,58.7502,-0.000650
52.340,58.7359,-0.000650
52.356,58.7210,-0.000650
52.372,58.7056,-0.000650
52.388,58.6899,-0.000650
52.409,58.6703,-0.000640
52.433,58.6462,-0.000640
52.451,58.6279,-0.000640
52.467,58.6117,-0.000640
52.484,58.5947,-0.000640
52.500,58.5780,-0.000640
52.516,58.5608,-0.000640
52.531,58.5449,-0.000640
52.548,58.5273,-0.000640
52.563,58.5097,-0.000640
52.580,58.4922,-0.000640
52.595,58.4749,-0.000640
52.612,58.4552,-0.000640
52.632,58.4330,-0.000640
52.647,58.4159,-0.000546
52.677,58.3804,-0.000546
52.708,58.3442,-0.000546
52.723,58.3256,-0.000546
52.747,58.2954,-0.000546
52.770,58.2667,-0.000546
52.800,58.2295,-0.000546
52.818,58.2067,-0.000546
52.834,58.1867,-0.000546
52.849,58.1667,-0.000546
52.866,58.1443,-0.000546
52.894,58.1072,-0.000461
52.913,58.0813,-0.000461
52.930,58.0590,-0.000461
52.946,58.0365,-0.000461
52.961,58.0154,-0.000461
52.977,57.9929,-0.000461
52.994,57.9689,-0.000461
53.009,57.9476,-0.000461
53.025,57.9244,-0.000461
53.041,57.9013,-0.000461
53.058,57.8771,-0.000461
53.078,57.8475,-0.000461
53.094,57.8226,-0.000461
53.109,57.8004,-0.000461
53.125,57.7751,-0.000461
53.156,57.7278,-0.000424
53.186,57.6817,-0.000424
53.217,57.6326,-0.000424
53.237,57.6009,-0.000424
53.264,57.5574,-0.000424
53.294,57.5086,-0.000424
53.310,57.4825,-0.000424
53.325,57.4572,-0.000424
53.341,57.4307,-0.000424
53.358,57.4024,-0.000424
53.373,57.3757,-0.000424
53.389,57.3479,-0.000433
53.405,57.3214,-0.000433
53.422,57.2923,-0.000433
53.449,57.2446,-0.000433
53.469,57.2087,-0.000433
53.485,57.1801,-0.000433
53.501,57.1514,-0.000433
53.517,57.1232,-0.000433
53.534,57.0915,-0.000433
53.550,57.0617,-0.000433
53.565,57.0340,-0.000433
53.581,57.0046,-0.000433
53.597,56.9748,-0.000433
53.613,56.9439,-0.000433
53.629,56.9152,-0.000433
53.645,56.8838,-0.000320
53.662,56.8517,-0.000320
53.677,56.8228,-0.000320
53.693,56.7906,-0.000320
53.710,56.7575,-0.000320
53.726,56.7266,-0.000320
53.742,56.6953,-0.000320
53.757,56.6647,-0.000320
53.773,56.6336,-0.000320
53.789,56.6006,-0.000320
53.805,56.5690,-0.000320
53.822,56.5348,-0.000320
53.846,56.4854,-0.000320
53.862,56.4505,-0.000320
53.878,56.4174,-0.000320
53.894,56.3851,-0.000226
53.910,56.3504,-0.000226
53.926,56.3176,-0.000226
53.941,56.2838,-0.000226
53.962,56.2399,-0.000226
53.989,56.1822,-0.000226
54.006,56.1479,-0.000226
54.022,56.1138,-0.000226
54.038,56.0802,-0.000226
54.054,56.0473,-0.000226
54.071,56.0127,-0.000226
54.092,55.9702,-0.000226
54.115,55.9214,-0.000226
54.134,55.8856,-0.000226
54.150,55.8545,-0.000226
54.166,55.8225,-0.000226
54.182,55.7900,-0.000235
54.198,55.7594,-0.000235
54.215,55.7262,-0.000235
54.238,55.6802,-0.000235
54.254,55.6509,-0.000235
54.284,55.5934,-0.000235
54.316,55.5346,-0.000235
54.347,55.4782,-0.000235
54.378,55.4212,-0.000235
54.394,55.3905,-0.000235
54.424,55.3367,-0.000179
54.440,55.3097,-0.000179
54.470,55.2569,-0.000179
54.486,55.2297,-0.000179
54.501,55.2020,-0.000179
54.520,55.1697,-0.000179
54.548,55.1242,-0.000179
54.566,55.0934,-0.000179
54.583,55.0658,-0.000179
54.608,55.0232,-0.000179
54.638,54.9746,-0.000179
54.669,54.9250,-0.000056
54.700,54.8765,-0.000056
54.715,54.8517,-0.000056
54.746,54.8042,-0.000056
54.777,54.7571,-0.000056
54.792,54.7340,-0.000056
54.823,54.6891,-0.000056
54.839,54.6647,-0.000056
54.869,54.6212,-0.000056
54.886,54.5965,-0.000056
54.908,54.5646,-0.000056
54.924,54.5432,-0.000056
54.940,54.5206,-0.000348
54.957,54.4983,-0.000348
54.972,54.4767,-0.000348
54.988,54.4550,-0.000348
55.006,54.4317,-0.000348
55.023,54.4087,-0.000348
55.040,54.3863,-0.000348
55.071,54.3462,-0.000348
55.102,54.3068,-0.000348
55.132,54.2694,-0.000348
55.149,54.2483,-0.000348
55.165,54.2288,-0.000348
55.181,54.2093,-0.000791
55.196,54.1907,-0.000791
55.215,54.1685,-0.000791
55.239,54.1402,-0.000791
55.261,54.1156,-0.000791
55.277,54.0972,-0.000791
55.293,54.0793,-0.000791
55.308,54.0618,-0.000791
55.324,54.0441,-0.000791
55.341,54.0257,-0.000791
55.357,54.0091,-0.000791
55.373,53.9919,-0.000791
55.389,53.9752,-0.000791
55.405,53.9586,-0.000791
55.420,53.9424,-0.000791
55.436,53.9263,-0.000791
55.452,53.9100,-0.000941
55.468,53.8941,-0.000941
55.484,53.8785,-0.000941
55.501,53.8621,-0.000941
55.516,53.8476,-0.000941
55.532,53.8320,-0.000941
55.549,53.8174,-0.000941
55.565,53.8026,-0.000941
55.581,53.7877,-0.000941
55.597,53.7737,-0.000941
55.612,53.7597,-0.000941
55.628,53.7457,-0.000941
55.645,53.7313,-0.000941
55.661,53.7184,-0.000941
55.676,53.7052,-0.000979
55.692,53.6921,-0.000979
55.713,53.6747,-0.000979
55.736,53.6564,-0.000979
55.756,53.6413,-0.000979
55.772,53.6282,-0.000979
55.788,53.6171,-0.000979
55.804,53.6053,-0.000979
55.821,53.5925,-0.000979
55.838,53.5804,-0.000979
55.855,53.5691,-0.000979
55.875,53.5549,-0.000979
55.906,53.5342,-0.000979
55.937,53.5144,-0.000979
55.968,53.4953,-0.000979
55.999,53.4767,-0.000979
56.029,53.4591,-0.000979
56.060,53.4424,-0.000979
56.078,53.4330,-0.000979
56.093,53.4251,-0.000979
56.122,53.4103,-0.000979
56.142,53.4005,-0.000979
56.169,53.3882,-0.000951
56.188,53.3794,-0.000951
56.205,53.3721,-0.000951
56.221,53.3655,-0.000951
56.236,53.3592,-0.000951
56.252,53.3525,-0.000951
56.268,53.3464,-0.000951
56.284,53.3405,-0.000951
56.300,53.3345,-0.000951
56.316,53.3291,-0.000951
56.332,53.3234,-0.000951
56.348,53.3183,-0.000951
56.364,53.3133,-0.000951
56.380,53.3085,-0.000951
56.396,53.3038,-0.000951
56.412,53.2993,-0.000922
56.428,53.2950,-0.000922
56.444,53.2910,-0.000922
56.460,53.2872,-0.000922
56.476,53.2834,-0.000922
56.507,53.2767,-0.000922
56.523,53.2736,-0.000922
56.539,53.2708,-0.000922
56.555,53.2681,-0.000922
56.572,53.2653,-0.000922
56.601,53.2612,-0.000922
56.619,53.2590,-0.000922
56.635,53.2573,-0.000922
56.651,53.2557,-0.000922
56.667,53.2543,-0.000913
56.683,53.2532,-0.000913
56.699,53.2522,-0.000913
56.715,53.2513,-0.000913
56.731,53.2507,-0.000913
56.747,53.2503,-0.000913
56.763,53.2501,-0.000913
56.779,53.2501,-0.000913
56.795,53.2501,-0.000913
56.811,53.2501,-0.000913
56.827,53.2501,-0.000913
56.843,53.2501,-0.000913
56.859,53.2501,-0.000913
56.875,53.2501,-0.000913
56.891,53.2501,-0.000885
56.907,53.2501,-0.000885
56.924,53.2501,-0.000885
56.941,53.2501,-0.000885
56.957,53.2503,-0.000885
56.988,53.2513,-0.000885
57.003,53.2522,-0.000885
57.019,53.2531,-0.000885
57.045,53.2552,-0.000885
57.061,53.2567,-0.000885
57.077,53.2583,-0.000885
57.093,53.2603,-0.000885
57.109,53.2622,-0.000885
57.125,53.2646,-0.000885
57.141,53.2670,-0.000857
57.157,53.2697,-0.000857
57.173,53.2725,-0.000857
57.189,53.2755,-0.000857
57.212,53.2803,-0.000857
57.235,53.2853,-0.000857
57.253,53.2895,-0.000857
57.270,53.2940,-0.000857
57.286,53.2982,-0.000857
57.312,53.3054,-0.000857
57.333,53.3117,-0.000857
57.349,53.3166,-0.000857
57.365,53.3216,-0.000857
57.381,53.3271,-0.000857
57.398,53.3329,-0.000857
57.420,53.3410,-0.000885
57.450,53.3530,-0.000885
57.466,53.3591,-0.000885
57.481,53.3655,-0.000885
57.498,53.3721,-0.000885
57.528,53.3856,-0.000885
57.544,53.3928,-0.000885
57.571,53.4056,-0.000885
57.587,53.4134,-0.000885
57.603,53.4215,-0.000885
57.619,53.4298,-0.000885
57.635,53.4384,-0.000885
57.651,53.4470,-0.000885
57.666,53.4556,-0.000941
57.684,53.4655,-0.000941
57.708,53.4798,-0.000941
57.730,53.4924,-0.000941
57.747,53.5030,-0.000941
57.764,53.5135,-0.000941
57.779,53.5231,-0.000941
57.794,53.5332,-0.000941
57.811,53.5438,-0.000941
57.827,53.5551,-0.000941
57.856,53.5750,-0.000941
57.875,53.5880,-0.000941
57.893,53.6012,-0.000941
57.917,53.6189,-0.000941
57.947,53.6416,-0.000941
57.977,53.6658,-0.000941
57.993,53.6786,-0.000941
58.024,53.7030,-0.000941
58.039,53.7157,-0.000941
58.055,53.7298,-0.000941
58.070,53.7426,-0.000941
58.094,53.7629,-0.000941
58.109,53.7768,-0.000941
58.125,53.7912,-0.000941
58.143,53.8074,-0.000941
58.163,53.8260,-0.000941
58.179,53.8420,-0.000960
58.195,53.8564,-0.000960
58.226,53.8862,-0.000960
58.242,53.9029,-0.000960
58.259,53.9192,-0.000960
58.289,53.9491,-0.000960
58.305,53.9666,-0.000960
58.336,53.9984,-0.000960
58.366,54.0312,-0.000960
58.382,54.0487,-0.000960
58.397,54.0654,-0.000960
58.413,54.0833,-0.000970
58.430,54.1015,-0.000970
58.445,54.1199,-0.000970
58.462,54.1391,-0.000970
58.477,54.1568,-0.000970
58.494,54.1760,-0.000970
58.510,54.1950,-0.000970
58.525,54.2139,-0.000970
58.542,54.2345,-0.000970
58.558,54.2542,-0.000970
58.576,54.2766,-0.000970
58.593,54.2976,-0.000970
58.613,54.3231,-0.000970
58.645,54.3641,-0.000970
58.675,54.4025,-0.000913
58.705,54.4434,-0.000913
58.720,54.4648,-0.000913
58.736,54.4847,-0.000913
58.752,54.5069,-0.000913
58.783,54.5495,-0.000913
58.813,54.5930,-0.000913
58.829,54.6161,-0.000913
58.846,54.6391,-0.000913
58.861,54.6626,-0.000913
58.878,54.6876,-0.000913
58.894,54.7098,-0.000913
58.910,54.7349,-0.000913
58.937,54.7757,-0.000913
58.958,54.8062,-0.000913
58.974,54.8321,-0.000913
58.989,54.8554,-0.000913
59.006,54.8809,-0.000913
59.021,54.9063,-0.000913
59.037,54.9307,-0.000913
59.053,54.9565,-0.000913
59.069,54.9837,-0.000913
59.085,55.0084,-0.000913
59.101,55.0345,-0.000913
59.118,55.0633,-0.000913
59.134,55.0889,-0.000913
59.149,55.1143,-0.000913
59.165,55.1414,-0.000913
59.186,55.1777,-0.000941
59.203,55.2057,-0.000941
59.223,55.2409,-0.000941
59.246,55.2822,-0.000941
59.267,55.3169,-0.000941
59.282,55.3448,-0.000941
59.298,55.3729,-0.000941
59.314,55.4035,-0.000941
59.330,55.4308,-0.000941
59.346,55.4596,-0.000941
59.362,55.4899,-0.000941
59.379,55.5196,-0.000941
59.394,55.5482,-0.000913
59.410,55.5790,-0.000913
59.426,55.6091,-0.000913
59.442,55.6396,-0.000913
59.458,55.6697,-0.000913
59.474,55.6999,-0.000913
59.491,55.7335,-0.000913
59.508,55.7668,-0.000913
59.539,55.8290,-0.000913
59.570,55.8889,-0.000913
59.586,55.9206,-0.000913
59.602,55.9527,-0.000913
59.621,55.9919,-0.000913
59.647,56.0457,-0.000885
59.666,56.0836,-0.000885
59.682,56.1179,-0.000885
59.698,56.1505,-0.000885
59.715,56.1867,-0.000885
59.740,56.2405,-0.000885
59.756,56.2741,-0.000885
59.771,56.3060,-0.000885
59.787,56.3394,-0.000885
59.804,56.3755,-0.000885
59.834,56.4371,-0.000885
59.851,56.4723,-0.000885
59.867,56.5055,-0.000885
59.883,56.5376,-0.000885
59.899,56.5685,-0.000734
59.915,56.6006,-0.000734
59.934,56.6394,-0.000734
59.959,56.6880,-0.000734
59.979,56.7281,-0.000734
59.995,56.7595,-0.000734
60.011,56.7900,-0.000734
60.027,56.8202,-0.000734
60.043,56.8517,-0.000734
60.062,56.8910,-0.000734
60.083,56.9271,-0.000734
60.114,56.9842,-0.000734
60.145,57.0417,-0.000301
60.175,57.0968,-0.000301
60.191,57.1259,-0.000301
60.222,57.1801,-0.000301
60.254,57.2373,-0.000301
60.284,57.2895,-0.000301
60.314,57.3414,-0.000301
60.330,57.3682,-0.000301
60.347,57.3956,-0.000301
60.364,57.4238,-0.000301
60.379,57.4491,-0.000301
60.395,57.4747,-0.000169
60.411,57.5009,-0.000169
60.426,57.5268,-0.000169
60.442,57.5522,-0.000169
60.459,57.5785,-0.000169
60.475,57.6052,-0.000169
60.493,57.6338,-0.000169
60.508,57.6574,-0.000169
60.531,57.6911,-0.000169
60.562,57.7386,-0.000169
60.593,57.7849,-0.000169
60.623,57.8299,-0.000169
60.654,57.8743,-0.000348
60.669,57.8975,-0.000348
60.685,57.9197,-0.000348
60.700,57.9403,-0.000348
60.730,57.9833,-0.000348
60.746,58.0046,-0.000348
60.763,58.0271,-0.000348
60.791,58.0657,-0.000348
60.807,58.0869,-0.000348
60.823,58.1089,-0.000348
60.839,58.1292,-0.000348
60.857,58.1511,-0.000348
60.872,58.1712,-0.000348
60.888,58.1917,-0.000452
60.903,58.2106,-0.000452
60.920,58.2321,-0.000452
60.935,58.2510,-0.000452
60.951,58.2704,-0.000452
60.967,58.2897,-0.000452
60.984,58.3095,-0.000452
61.000,58.3286,-0.000452
61.015,58.3466,-0.000452
61.031,58.3653,-0.000452
61.048,58.3845,-0.000452
61.063,58.4018,-0.000452
61.079,58.4199,-0.000452
61.095,58.4379,-0.000452
61.112,58.4562,-0.000452
61.127,58.4728,-0.000452
61.144,58.4907,-0.000508
61.159,58.5072,-0.000508
61.175,58.5241,-0.000508
61.192,58.5414,-0.000508
61.207,58.5572,-0.000508
61.224,58.5734,-0.000508
61.239,58.5902,-0.000508
61.256,58.6057,-0.000508
61.271,58.6212,-0.000508
61.288,58.6374,-0.000508
61.304,58.6527,-0.000508
61.320,58.6678,-0.000508
61.346,58.6916,-0.000508
61.361,58.7057,-0.000508
61.376,58.7195,-0.000508
61.393,58.7344,-0.000489
61.409,58.7483,-0.000489
61.424,58.7616,-0.000489
61.440,58.7752,-0.000489
61.465,58.7970,-0.000489
61.488,58.8148,-0.000489
61.504,58.8280,-0.000489
61.522,58.8432,-0.000489
61.550,58.8641,-0.000489
61.568,58.8775,-0.000489
61.584,58.8898,-0.000489
61.601,58.9016,-0.000489
61.616,58.9127,-0.000489
61.633,58.9242,-0.000489
61.649,58.9361,-0.000489
61.665,58.9462,-0.000489
61.680,58.9569,-0.000527
61.696,58.9676,-0.000527
61.713,58.9781,-0.000527
61.729,58.9883,-0.000527
61.744,58.9981,-0.000527
61.760,59.0077,-0.000527
61.777,59.0175,-0.000527
61.793,59.0271,-0.000527
61.808,59.0361,-0.000527
61.824,59.0448,-0.000527
61.841,59.0540,-0.000527
61.856,59.0623,-0.000527
61.887,59.0786,-0.000527
61.903,59.0867,-0.000527
61.920,59.0946,-0.000678
61.935,59.1020,-0.000678
61.952,59.1102,-0.000678
61.969,59.1175,-0.000678
61.997,59.1300,-0.000678
62.021,59.1398,-0.000678
62.043,59.1489,-0.000678
62.064,59.1567,-0.000678
62.080,59.1625,-0.000678
62.097,59.1686,-0.000678
62.112,59.1738,-0.000678
62.127,59.1790,-0.000678
62.143,59.1841,-0.000678
62.159,59.1891,-0.000734
62.175,59.1938,-0.000734
62.191,59.1986,-0.000734
62.208,59.2030,-0.000734
62.223,59.2071,-0.000734
62.239,59.2110,-0.000734
62.255,59.2147,-0.000734
62.272,59.2186,-0.000734
62.287,59.2218,-0.000734
62.303,59.2250,-0.000734
62.319,59.2281,-0.000734
62.335,59.2309,-0.000734
62.351,59.2335,-0.000734
62.367,59.2360,-0.000734
62.387,59.2388,-0.000734
62.414,59.2419,-0.000734
62.429,59.2435,-0.000734
62.444,59.2450,-0.000697
62.460,59.2462,-0.000697
62.477,59.2475,-0.000697
62.492,59.2484,-0.000697
62.508,59.2491,-0.000697
62.524,59.2496,-0.000697
62.540,59.2500,-0.000697
62.556,59.2501,-0.000697
62.573,59.2501,-0.000697
62.600,59.2501,-0.000697
62.620,59.2501,-0.000697
62.639,59.2501,-0.000697
62.662,59.2501,-0.000697
62.678,59.2501,-0.000734
62.694,59.2501,-0.000734
62.716,59.2501,-0.000734
62.732,59.2501,-0.000734
62.748,59.2501,-0.000734
62.764,59.2501,-0.000734
62.780,59.2501,-0.000734
62.796,59.2501,-0.000734
62.812,59.2501,-0.000734
62.828,59.2501,-0.000734
62.844,59.2501,-0.000734
62.860,59.2501,-0.000734
62.876,59.2501,-0.000734
62.892,59.2501,-0.000734
62.908,59.2501,-0.000734
62.924,59.2501,-0.000734
62.940,59.2501,-0.000828
62.957,59.2501,-0.000828
62.973,59.2501,-0.000828
63.004,59.2501,-0.000828
63.023,59.2501,-0.000828
63.051,59.2501,-0.000828
63.070,59.2501,-0.000828
63.097,59.2501,-0.000828
63.116,59.2501,-0.000828
63.133,59.2501,-0.000828
63.149,59.2501,-0.000828
63.165,59.2501,-0.000847
63.180,59.2501,-0.000847
63.196,59.2501,-0.000847
63.212,59.2501,-0.000847
63.228,59.2501,-0.000847
63.245,59.2501,-0.000847
63.260,59.2501,-0.000847
63.276,59.2501,-0.000847
63.292,59.2501,-0.000847
63.308,59.2501,-0.000847
63.324,59.2501,-0.000847
63.340,59.2501,-0.000847
63.356,59.2501,-0.000847
63.373,59.2501,-0.000847
63.391,59.2501,-0.000847
63.422,59.2501,-0.000894
63.452,59.2501,-0.000894
63.468,59.2501,-0.000894
63.495,59.2501,-0.000894
63.512,59.2501,-0.000894
63.527,59.2501,-0.000894
63.543,59.2501,-0.000894
63.559,59.2501,-0.000894
63.575,59.2501,-0.000894
63.591,59.2501,-0.000894
63.607,59.2501,-0.000894
63.624,59.2501,-0.000894
63.639,59.2501,-0.000894
63.655,59.2501,-0.000866
63.671,59.2501,-0.000866
63.688,59.2501,-0.000866
63.716,59.2501,-0.000866
63.735,59.2501,-0.000866
63.751,59.2501,-0.000866
63.767,59.2501,-0.000866
63.783,59.2501,-0.000866
63.799,59.2501,-0.000866
63.815,59.2501,-0.000866
63.832,59.2501,-0.000866
63.855,59.2501,-0.000866
63.887,59.2501,-0.000866
63.917,59.2501,-0.000800
63.932,59.2501,-0.000800
63.948,59.2501,-0.000800
63.964,59.2501,-0.000800
63.995,59.2501,-0.000800
64.021,59.2501,-0.000800
64.039,59.2501,-0.000800
64.058,59.2501,-0.000800
64.088,59.2501,-0.000800
64.119,59.2501,-0.000800
64.149,59.2501,-0.000800
64.164,59.2501,-0.000781
64.181,59.2501,-0.000781
64.198,59.2501,-0.000781
64.214,59.2501,-0.000781
64.243,59.2501,-0.000781
64.262,59.2501,-0.000781
64.290,59.2501,-0.000781
64.309,59.2501,-0.000781
64.324,59.2501,-0.000781
64.341,59.2501,-0.000781
64.356,59.2501,-0.000781
64.373,59.2501,-0.000781
64.389,59.2501,-0.000781
64.404,59.2501,-0.000781
64.420,59.2501,-0.000791
64.437,59.2501,-0.000791
64.452,59.2501,-0.000791
64.469,59.2501,-0.000791
64.485,59.2501,-0.000791
64.501,59.2501,-0.000791
64.527,59.2501,-0.000791
64.553,59.2501,-0.000791
64.584,59.2501,-0.000791
64.599,59.2501,-0.000791
64.616,59.2501,-0.000791
64.646,59.2501,-0.000791
64.670,59.2501,-0.000791
64.692,59.2501,-0.000838
64.709,59.2501,-0.000838
64.725,59.2501,-0.000838
64.741,59.2501,-0.000838
64.757,59.2501,-0.000838
64.773,59.2501,-0.000838
64.788,59.2501,-0.000838
64.804,59.2501,-0.000838
64.821,59.2501,-0.000838
64.837,59.2501,-0.000838
64.864,59.2501,-0.000838
64.885,59.2501,-0.000838
64.900,59.2501,-0.000838
64.917,59.2501,-0.000838
64.932,59.2501,-0.000819
64.949,59.2501,-0.000819
64.965,59.2501,-0.000819
64.981,59.2501,-0.000819
64.996,59.2501,-0.000819
65.012,59.2501,-0.000819
65.028,59.2501,-0.000819
65.044,59.2501,-0.000819
65.060,59.2501,-0.000819
65.076,59.2501,-0.000819
65.103,59.2501,-0.000819
65.118,59.2501,-0.000819
65.135,59.2501,-0.000819
65.150,59.2501,-0.000819
65.166,59.2501,-0.000847
65.182,59.2501,-0.000847
65.198,59.2501,-0.000847
65.215,59.2501,-0.000847
65.230,59.2501,-0.000847
65.246,59.2501,-0.000847
65.263,59.2501,-0.000847
65.279,59.2501,-0.000847
65.294,59.2501,-0.000847
65.310,59.2501,-0.000847
65.327,59.2501,-0.000847
65.358,59.2501,-0.000847
65.374,59.2501,-0.000847
65.391,59.2501,-0.000847
65.409,59.2501,-0.000847
65.435,59.2501,-0.000866
65.455,59.2501,-0.000866
65.471,59.2501,-0.000866
65.486,59.2501,-0.000866
65.502,59.2501,-0.000866
65.519,59.2501,-0.000866
65.535,59.2501,-0.000866
65.550,59.2501,-0.000866
65.567,59.2501,-0.000866
65.583,59.2501,-0.000866
65.599,59.2501,-0.000866
65.614,59.2501,-0.000866
65.636,59.2501,-0.000866
65.653,59.2501,-0.000866
65.668,59.2501,-0.000819
65.684,59.2501,-0.000819
65.702,59.2501,-0.000819
65.729,59.2501,-0.000819
65.748,59.2501,-0.000819
65.764,59.2501,-0.000819
65.780,59.2501,-0.000819
65.796,59.2501,-0.000819
65.812,59.2501,-0.000819
65.828,59.2501,-0.000819
65.844,59.2501,-0.000819
65.860,59.2501,-0.000819
65.876,59.2501,-0.000819
65.892,59.2501,-0.000819
65.908,59.2501,-0.000810
65.924,59.2501,-0.000810
65.940,59.2501,-0.000810
65.956,59.2501,-0.000810
65.972,59.2501,-0.000810
65.988,59.2501,-0.000810
66.004,59.2501,-0.000810
66.020,59.2501,-0.000810
66.036,59.2501,-0.000810
66.052,59.2501,-0.000810
66.069,59.2501,-0.000810
66.101,59.2501,-0.000810
66.116,59.2501,-0.000810
66.133,59.2501,-0.000810
66.148,59.2501,-0.000810
66.164,59.2501,-0.000810
66.191,59.2501,-0.000847
66.207,59.2501,-0.000847
66.223,59.2501,-0.000847
66.240,59.2501,-0.000847
66.255,59.2501,-0.000847
66.271,59.2501,-0.000847
66.287,59.2501,-0.000847
66.303,59.2501,-0.000847
66.320,59.2501,-0.000847
66.347,59.2501,-0.000847
66.367,59.2501,-0.000847
66.383,59.2501,-0.000847
66.399,59.2501,-0.000847
66.415,59.2501,-0.000885
66.431,59.2501,-0.000885
66.447,59.2501,-0.000885
66.463,59.2501,-0.000885
66.479,59.2501,-0.000885
66.495,59.2501,-0.000885
66.514,59.2501,-0.000885
66.532,59.2501,-0.000885
66.562,59.2501,-0.000885
66.579,59.2501,-0.000885
66.609,59.2501,-0.000885
66.624,59.2501,-0.000885
66.639,59.2501,-0.000885
66.655,59.2501,-0.000847
66.671,59.2501,-0.000847
66.689,59.2501,-0.000847
66.717,59.2501,-0.000847
66.745,59.2501,-0.000847
66.765,59.2501,-0.000847
66.794,59.2501,-0.000847
66.825,59.2500,-0.000847
66.841,59.2496,-0.000847
66.871,59.2485,-0.000847
66.889,59.2475,-0.000847
66.918,59.2454,-0.000791
66.937,59.2436,-0.000791
66.965,59.2405,-0.000791
66.984,59.2381,-0.000791
67.001,59.2357,-0.000791
67.016,59.2333,-0.000791
67.031,59.2309,-0.000791
67.048,59.2280,-0.000791
67.064,59.2248,-0.000791
67.080,59.2216,-0.000791
67.095,59.2183,-0.000791
67.112,59.2146,-0.000791
67.128,59.2109,-0.000791
67.143,59.2069,-0.000725
67.160,59.2026,-0.000725
67.176,59.1982,-0.000725
67.192,59.1935,-0.000725
67.207,59.1891,-0.000725
67.224,59.1841,-0.000725
67.239,59.1789,-0.000725
67.256,59.1734,-0.000725
67.271,59.1680,-0.000725
67.299,59.1579,-0.000725
67.316,59.1515,-0.000725
67.331,59.1455,-0.000725
67.348,59.1388,-0.000725
67.365,59.1318,-0.000725
67.395,59.1186,-0.000687
67.412,59.1111,-0.000687
67.428,59.1032,-0.000687
67.456,59.0900,-0.000687
67.476,59.0802,-0.000687
67.492,59.0716,-0.000687
67.507,59.0638,-0.000687
67.524,59.0549,-0.000687
67.540,59.0462,-0.000687
67.556,59.0371,-0.000687
67.572,59.0280,-0.000687
67.587,59.0189,-0.000687
67.604,59.0091,-0.000687
67.619,58.9996,-0.000687
67.636,58.9890,-0.000744
67.651,58.9796,-0.000744
67.667,58.9691,-0.000744
67.684,58.9583,-0.000744
67.699,58.9478,-0.000744
67.715,58.9371,-0.000744
67.731,58.9260,-0.000744
67.748,58.9142,-0.000744
67.763,58.9029,-0.000744
67.779,58.8914,-0.000744
67.795,58.8793,-0.000744
67.819,58.8612,-0.000744
67.835,58.8489,-0.000744
67.851,58.8365,-0.000744
67.867,58.8237,-0.000744
67.883,58.8107,-0.000744
67.899,58.7972,-0.000640
67.916,58.7835,-0.000640
67.932,58.7700,-0.000640
67.947,58.7568,-0.000640
67.963,58.7431,-0.000640
67.979,58.7289,-0.000640
67.995,58.7144,-0.000640
68.011,58.7000,-0.000640
68.027,58.6855,-0.000640
68.044,58.6703,-0.000640
68.059,58.6554,-0.000640
68.076,58.6398,-0.000640
68.091,58.6248,-0.000640
68.108,58.6078,-0.000640
68.124,58.5919,-0.000640
68.139,58.5766,-0.000546
68.155,58.5610,-0.000546
68.174,58.5415,-0.000546
68.201,58.5123,-0.000546
68.219,58.4937,-0.000546
68.236,58.4763,-0.000546
68.251,58.4594,-0.000546
68.268,58.4412,-0.000546
68.283,58.4238,-0.000546
68.300,58.4054,-0.000546
68.316,58.3873,-0.000546
68.331,58.3696,-0.000546
68.354,58.3419,-0.000546
68.370,58.3240,-0.000546
68.386,58.3050,-0.000537
68.402,58.2852,-0.000537
68.419,58.2651,-0.000537
68.434,58.2466,-0.000537
68.451,58.2262,-0.000537
68.466,58.2063,-0.000537
68.483,58.1853,-0.000537
68.498,58.1662,-0.000537
68.514,58.1458,-0.000537
68.530,58.1248,-0.000537
68.546,58.1035,-0.000537
68.562,58.0824,-0.000537
68.578,58.0607,-0.000537
68.594,58.0395,-0.000537
68.611,58.0172,-0.000537
68.626,57.9958,-0.000537
68.642,57.9734,-0.000480
68.658,57.9517,-0.000480
68.675,57.9286,-0.000480
68.690,57.9060,-0.000480
68.706,57.8832,-0.000480
68.722,57.8602,-0.000480
68.738,57.8370,-0.000480
68.754,57.8129,-0.000480
68.770,57.7887,-0.000480
68.786,57.7663,-0.000480
68.803,57.7406,-0.000480
68.834,57.6926,-0.000480
68.857,57.6565,-0.000480
68.881,57.6198,-0.000480
68.897,57.5939,-0.000480
68.913,57.5691,-0.000452
68.930,57.5432,-0.000452
68.945,57.5180,-0.000452
68.961,57.4924,-0.000452
68.980,57.4598,-0.000452
69.004,57.4216,-0.000452
69.025,57.3856,-0.000452
69.041,57.3582,-0.000452
69.057,57.3322,-0.000452
69.073,57.3050,-0.000452
69.089,57.2772,-0.000452
69.106,57.2476,-0.000452
69.121,57.2209,-0.000452
69.137,57.1937,-0.000433
69.154,57.1630,-0.000433
69.169,57.1354,-0.000433
69.186,57.1065,-0.000433
69.202,57.0766,-0.000433
69.220,57.0441,-0.000433
69.236,57.0131,-0.000433
69.267,56.9568,-0.000433
69.284,56.9244,-0.000433
69.299,56.8965,-0.000433
69.330,56.8396,-0.000433
69.345,56.8086,-0.000433
69.361,56.7794,-0.000433
69.377,56.7485,-0.000433
69.393,56.7142,-0.000433
69.417,56.6697,-0.000433
69.438,56.6282,-0.000433
69.468,56.5663,-0.000301
69.484,56.5346,-0.000301
69.515,56.4705,-0.000301
69.545,56.4086,-0.000301
69.576,56.3458,-0.000301
69.592,56.3120,-0.000301
69.609,56.2774,-0.000301
69.624,56.2450,-0.000301
69.640,56.2084,-0.000301
69.656,56.1763,-0.000301
69.672,56.1403,-0.000113
69.688,56.1086,-0.000113
69.705,56.0721,-0.000113
69.730,56.0190,-0.000113
69.752,55.9762,-0.000113
69.768,55.9429,-0.000113
69.784,55.9108,-0.000113
69.800,55.8789,-0.000113
69.816,55.8465,-0.000113
69.832,55.8140,-0.000113
69.848,55.7831,-0.000113
69.864,55.7515,-0.000113
69.880,55.7193,-0.000113
69.896,55.6881,-0.000113
69.912,55.6575,-0.000113
69.941,55.6023,-0.000169
69.957,55.5720,-0.000169
69.973,55.5417,-0.000169
69.989,55.5120,-0.000169
70.005,55.4814,-0.000169
70.021,55.4514,-0.000169
70.036,55.4231,-0.000169
70.053,55.3912,-0.000169
70.069,55.3634,-0.000169
70.085,55.3347,-0.000169
70.100,55.3074,-0.000169
70.121,55.2697,-0.000169
70.148,55.2218,-0.000179
70.165,55.1938,-0.000179
70.181,55.1649,-0.000179
70.198,55.1364,-0.000179
70.226,55.0874,-0.000179
70.245,55.0567,-0.000179
70.260,55.0312,-0.000179
70.276,55.0046,-0.000179
70.293,54.9782,-0.000179
70.311,54.9480,-0.000179
70.335,54.9090,-0.000179
70.365,54.8595,-0.000179
70.396,54.8120,-0.000179
70.426,54.7643,-0.000085
70.457,54.7185,-0.000085
70.488,54.6714,-0.000085
70.519,54.6261,-0.000085
70.535,54.6026,-0.000085
70.566,54.5569,-0.000085
70.596,54.5149,-0.000085
70.615,54.4883,-0.000085
70.643,54.4494,-0.000518
70.660,54.4256,-0.000518
70.678,54.4021,-0.000518
70.693,54.3823,-0.000518
70.709,54.3600,-0.000518
70.724,54.3405,-0.000518
70.740,54.3183,-0.000518
70.757,54.2985,-0.000518
70.773,54.2769,-0.000518
70.788,54.2576,-0.000518
70.805,54.2368,-0.000518
70.821,54.2172,-0.000518
70.836,54.1981,-0.000518
70.853,54.1767,-0.000518
70.877,54.1486,-0.000518
70.893,54.1297,-0.000518
70.923,54.0934,-0.000941
70.953,54.0587,-0.000941
70.968,54.0412,-0.000941
70.999,54.0079,-0.000941
71.031,53.9733,-0.000941
71.061,53.9413,-0.000941
71.077,53.9245,-0.000941
71.092,53.9082,-0.000941
71.109,53.8913,-0.000941
71.124,53.8755,-0.000941
71.141,53.8587,-0.000904
71.156,53.8435,-0.000904
71.177,53.8216,-0.000904
71.198,53.8026,-0.000904
71.214,53.7878,-0.000904
71.245,53.7586,-0.000904
71.275,53.7315,-0.000904
71.307,53.7030,-0.000904
71.337,53.6770,-0.000904
71.368,53.6506,-0.000904
71.400,53.6256,-0.000866
71.431,53.6007,-0.000866
71.462,53.5775,-0.000866
71.480,53.5640,-0.000866
71.507,53.5434,-0.000866
71.534,53.5250,-0.000866
71.550,53.5136,-0.000866
71.565,53.5031,-0.000866
71.581,53.4923,-0.000866
71.597,53.4820,-0.000866
71.613,53.4712,-0.000866
71.629,53.4612,-0.000866
71.645,53.4512,-0.000922
71.661,53.4412,-0.000922
71.677,53.4321,-0.000922
71.693,53.4227,-0.000922
71.710,53.4130,-0.000922
71.726,53.4040,-0.000922
71.753,53.3892,-0.000922
71.773,53.3788,-0.000922
71.789,53.3704,-0.000922
71.805,53.3624,-0.000922
71.821,53.3548,-0.000922
71.837,53.3469,-0.000922
71.853,53.3396,-0.000922
71.870,53.3318,-0.000922
71.885,53.3254,-0.000922
71.909,53.3151,-0.000932
71.939,53.3027,-0.000932
71.969,53.2911,-0.000932
71.986,53.2852,-0.000932
72.015,53.2750,-0.000932
72.030,53.2699,-0.000932
72.046,53.2650,-0.000932
72.061,53.2604,-0.000932
72.090,53.2518,-0.000932
72.113,53.2455,-0.000932
72.139,53.2388,-0.000932
72.158,53.2347,-0.000941
72.186,53.2284,-0.000941
72.217,53.2223,-0.000941
72.233,53.2197,-0.000941
72.249,53.2170,-0.000941
72.265,53.2145,-0.000941
72.286,53.2113,-0.000941
72.310,53.2085,-0.000941
72.329,53.2067,-0.000941
72.346,53.2051,-0.000941
72.361,53.2038,-0.000941
72.377,53.2027,-0.000941
72.393,53.2018,-0.000932
72.409,53.2011,-0.000932
72.425,53.2006,-0.000932
72.441,53.2002,-0.000932
72.457,53.2001,-0.000932
72.473,53.2001,-0.000932
72.489,53.2001,-0.000932
72.505,53.2001,-0.000932
72.521,53.2001,-0.000932
72.537,53.2001,-0.000932
72.553,53.2001,-0.000932
72.570,53.2001,-0.000932
72.585,53.2001,-0.000932
72.612,53.2001,-0.000932
72.628,53.2001,-0.000932
72.644,53.2003,-0.000828
72.660,53.2007,-0.000828
72.676,53.2013,-0.000828
72.692,53.2022,-0.000828
72.708,53.2032,-0.000828
72.724,53.2043,-0.000828
72.740,53.2057,-0.000828
72.756,53.2073,-0.000828
72.772,53.2090,-0.000828
72.788,53.2110,-0.000828
72.803,53.2131,-0.000828
72.820,53.2156,-0.000828
72.837,53.2183,-0.000828
72.852,53.2208,-0.000828
72.867,53.2238,-0.000828
72.885,53.2270,-0.000828
72.903,53.2310,-0.000828
72.927,53.2363,-0.000866
72.948,53.2413,-0.000866
72.963,53.2454,-0.000866
72.981,53.2498,-0.000866
73.005,53.2568,-0.000866
73.036,53.2666,-0.000866
73.068,53.2766,-0.000866
73.085,53.2828,-0.000866
73.114,53.2931,-0.000866
73.144,53.3048,-0.000866
73.175,53.3178,-0.000960
73.191,53.3244,-0.000960
73.221,53.3376,-0.000960
73.251,53.3519,-0.000960
73.268,53.3601,-0.000960
73.283,53.3678,-0.000960
73.299,53.3758,-0.000960
73.317,53.3853,-0.000960
73.337,53.3958,-0.000960
73.358,53.4077,-0.000960
73.379,53.4195,-0.000960
73.396,53.4293,-0.000960
73.411,53.4384,-0.000951
73.428,53.4483,-0.000951
73.445,53.4588,-0.000951
73.466,53.4726,-0.000951
73.482,53.4828,-0.000951
73.498,53.4933,-0.000951
73.529,53.5144,-0.000951
73.560,53.5363,-0.000951
73.591,53.5583,-0.000951
73.621,53.5812,-0.000951
73.637,53.5929,-0.000951
73.667,53.6168,-0.000913
73.684,53.6303,-0.000913
73.700,53.6429,-0.000913
73.716,53.6563,-0.000913
73.731,53.6693,-0.000913
73.749,53.6843,-0.000913
73.774,53.7059,-0.000913
73.789,53.7195,-0.000913
73.805,53.7340,-0.000913
73.828,53.7545,-0.000913
73.843,53.7684,-0.000913
73.859,53.7834,-0.000913
73.875,53.7985,-0.000913
73.892,53.8139,-0.000904
73.907,53.8293,-0.000904
73.923,53.8453,-0.000904
73.940,53.8611,-0.000904
73.955,53.8770,-0.000904
73.971,53.8930,-0.000904
73.987,53.9096,-0.000904
74.003,53.9265,-0.000904
74.019,53.9435,-0.000904
74.036,53.9616,-0.000904
74.053,53.9806,-0.000904
74.082,54.0111,-0.000904
74.100,54.0316,-0.000904
74.120,54.0550,-0.000904
74.145,54.0831,-0.000904
74.164,54.1051,-0.000922
74.188,54.1340,-0.000922
74.204,54.1525,-0.000922
74.220,54.1719,-0.000922
74.236,54.1909,-0.000922
74.252,54.2108,-0.000922
74.269,54.2322,-0.000922
74.284,54.2512,-0.000922
74.300,54.2707,-0.000922
74.317,54.2927,-0.000922
74.333,54.3138,-0.000922
74.361,54.3510,-0.000922
74.386,54.3835,-0.000922
74.402,54.4042,-0.000922
74.425,54.4365,-0.000894
74.444,54.4637,-0.000894
74.460,54.4854,-0.000894
74.476,54.5067,-0.000894
74.493,54.5307,-0.000894
74.508,54.5526,-0.000894
74.525,54.5766,-0.000894
74.548,54.6098,-0.000894
74.578,54.6548,-0.000894
74.594,54.6790,-0.000894
74.625,54.7262,-0.000894
74.641,54.7498,-0.000894
74.671,54.7954,-0.000847
74.686,54.8208,-0.000847
74.703,54.8465,-0.000847
74.733,54.8938,-0.000847
74.749,54.9196,-0.000847
74.765,54.9445,-0.000847
74.797,54.9973,-0.000847
74.814,55.0265,-0.000847
74.843,55.0745,-0.000847
74.860,55.1024,-0.000847
74.877,55.1311,-0.000847
74.905,55.1801,-0.000941
74.924,55.2125,-0.000941
74.940,55.2415,-0.000941
74.956,55.2701,-0.000941
74.972,55.2970,-0.000941
74.988,55.3261,-0.000941
75.005,55.3579,-0.000941
75.020,55.3845,-0.000941
75.036,55.4126,-0.000941
75.052,55.4421,-0.000941
75.068,55.4725,-0.000941
75.084,55.5012,-0.000941
75.100,55.5322,-0.000941
75.116,55.5613,-0.000941
75.132,55.5925,-0.000941
75.148,55.6225,-0.000960
75.164,55.6533,-0.000960
75.180,55.6838,-0.000960
75.196,55.7160,-0.000960
75.212,55.7464,-0.000960
75.228,55.7789,-0.000960
75.244,55.8122,-0.000960
75.267,55.8566,-0.000960
75.283,55.8879,-0.000960
75.299,55.9199,-0.000960
75.315,55.9524,-0.000960
75.331,55.9867,-0.000960
75.347,56.0179,-0.000960
75.363,56.0531,-0.000960
75.379,56.0846,-0.000960
75.395,56.1186,-0.000960
75.410,56.1524,-0.000941
75.427,56.1867,-0.000941
75.443,56.2207,-0.000941
75.459,56.2550,-0.000941
75.475,56.2883,-0.000941
75.491,56.3220,-0.000941
75.507,56.3546,-0.000941
75.523,56.3886,-0.000941
75.539,56.4211,-0.000941
75.555,56.4535,-0.000941
75.577,56.4991,-0.000941
75.599,56.5450,-0.000941
75.619,56.5818,-0.000941
75.635,56.6157,-0.000941
75.650,56.6457,-0.000941
75.667,56.6772,-0.000650
75.683,56.7086,-0.000650
75.699,56.7390,-0.000650
75.716,56.7714,-0.000650
75.738,56.8159,-0.000650
75.770,56.8753,-0.000650
75.800,56.9327,-0.000650
75.821,56.9686,-0.000650
75.836,56.9978,-0.000650
75.852,57.0270,-0.000650
75.869,57.0559,-0.000650
75.885,57.0859,-0.000650
75.901,57.1137,-0.000254
75.917,57.1413,-0.000254
75.932,57.1693,-0.000254
75.949,57.1990,-0.000254
75.970,57.2357,-0.000254
75.986,57.2622,-0.000254
76.004,57.2924,-0.000254
76.033,57.3420,-0.000254
76.048,57.3675,-0.000254
76.079,57.4191,-0.000254
76.095,57.4454,-0.000254
76.126,57.4966,-0.000254
76.157,57.5439,-0.000254
76.173,57.5691,-0.000254
76.190,57.5971,-0.000254
76.219,57.6411,-0.000254
76.236,57.6672,-0.000254
76.252,57.6921,-0.000254
76.268,57.7157,-0.000254
76.285,57.7401,-0.000254
76.301,57.7639,-0.000254
76.317,57.7886,-0.000254
76.332,57.8104,-0.000254
76.350,57.8351,-0.000254
76.374,57.8695,-0.000254
76.389,57.8923,-0.000254
76.405,57.9149,-0.000377
76.421,57.9361,-0.000377
76.444,57.9688,-0.000377
76.467,57.9992,-0.000377
76.485,58.0230,-0.000377
76.502,58.0459,-0.000377
76.517,58.0654,-0.000377
76.534,58.0884,-0.000377
76.549,58.1073,-0.000377
76.565,58.1277,-0.000377
76.582,58.1489,-0.000377
76.608,58.1814,-0.000377
76.629,58.2075,-0.000377
76.645,58.2269,-0.000377
76.661,58.2465,-0.000527
76.677,58.2653,-0.000527
76.694,58.2851,-0.000527
76.709,58.3032,-0.000527
76.725,58.3215,-0.000527
76.742,58.3416,-0.000527
76.762,58.3632,-0.000527
76.778,58.3813,-0.000527
76.808,58.4157,-0.000527
76.840,58.4490,-0.000527
76.870,58.4815,-0.000527
76.899,58.5114,-0.000527
76.917,58.5289,-0.000527
76.934,58.5459,-0.000537
76.965,58.5759,-0.000537
76.981,58.5914,-0.000537
76.996,58.6065,-0.000537
77.027,58.6357,-0.000537
77.042,58.6493,-0.000537
77.059,58.6647,-0.000537
77.074,58.6786,-0.000537
77.090,58.6920,-0.000537
77.107,58.7069,-0.000537
77.128,58.7248,-0.000537
77.150,58.7433,-0.000537
77.170,58.7597,-0.000537
77.186,58.7728,-0.000537
77.203,58.7862,-0.000537
77.227,58.8047,-0.000537
77.242,58.8174,-0.000537
77.273,58.8399,-0.000537
77.304,58.8628,-0.000537
77.334,58.8837,-0.000537
77.365,58.9052,-0.000537
77.397,58.9253,-0.000574
77.424,58.9429,-0.000574
77.440,58.9529,-0.000574
77.456,58.9622,-0.000574
77.472,58.9719,-0.000574
77.488,58.9811,-0.000574
77.504,58.9901,-0.000574
77.520,58.9994,-0.000574
77.536,59.0077,-0.000574
77.554,59.0175,-0.000574
77.584,59.0327,-0.000574
77.600,59.0410,-0.000574
77.616,59.0487,-0.000574
77.632,59.0564,-0.000574
77.648,59.0636,-0.000602
77.665,59.0711,-0.000602
77.680,59.0779,-0.000602
77.696,59.0844,-0.000602
77.713,59.0913,-0.000602
77.728,59.0974,-0.000602
77.746,59.1045,-0.000602
77.769,59.1132,-0.000602
77.800,59.1240,-0.000602
77.816,59.1292,-0.000602
77.846,59.1387,-0.000602
77.877,59.1479,-0.000602
77.907,59.1560,-0.000621
77.923,59.1599,-0.000621
77.947,59.1658,-0.000621
77.970,59.1707,-0.000621
78.000,59.1767,-0.000621
78.030,59.1821,-0.000621
78.062,59.1868,-0.000621
78.092,59.1908,-0.000621
78.123,59.1942,-0.000621
78.140,59.1956,-0.000631
78.155,59.1968,-0.000631
78.173,59.1980,-0.000631
78.188,59.1987,-0.000631
78.215,59.1997,-0.000631
78.236,59.2001,-0.000631
78.251,59.2001,-0.000631
78.267,59.2001,-0.000631
78.282,59.2001,-0.000631
78.299,59.2001,-0.000631
78.315,59.2001,-0.000631
78.331,59.2001,-0.000631
78.347,59.2001,-0.000631
78.363,59.2001,-0.000631
78.379,59.2001,-0.000631
78.395,59.2001,-0.000725
78.411,59.2001,-0.000725
78.427,59.2001,-0.000725
78.443,59.2001,-0.000725
78.458,59.2001,-0.000725
78.475,59.2001,-0.000725
78.491,59.2001,-0.000725
78.506,59.2001,-0.000725
78.524,59.2001,-0.000725
78.555,59.2001,-0.000725
78.571,59.2001,-0.000725
78.586,59.2001,-0.000725
78.604,59.2001,-0.000725
78.633,59.2001,-0.000781
78.651,59.2001,-0.000781
78.668,59.2001,-0.000781
78.696,59.2001,-0.000781
78.715,59.2001,-0.000781
78.731,59.2001,-0.000781
78.747,59.2001,-0.000781
78.763,59.2001,-0.000781
78.779,59.2001,-0.000781
78.795,59.2001,-0.000781
78.810,59.2001,-0.000781
78.827,59.2001,-0.000781
78.843,59.2001,-0.000781
78.859,59.2001,-0.000781
78.875,59.2001,-0.000781
78.890,59.2001,-0.000762
78.907,59.2001,-0.000762
78.929,59.2001,-0.000762
78.945,59.2001,-0.000762
78.976,59.2001,-0.000762
78.999,59.2001,-0.000762
79.016,59.2001,-0.000762
79.031,59.2001,-0.000762
79.048,59.2001,-0.000762
79.063,59.2001,-0.000762
79.079,59.2001,-0.000762
79.097,59.2001,-0.000762
79.120,59.2001,-0.000762
79.144,59.2001,-0.000725
79.161,59.2001,-0.000725
79.176,59.2001,-0.000725
79.191,59.2001,-0.000725
79.207,59.2001,-0.000725
79.223,59.2001,-0.000725
79.239,59.2001,-0.000725
79.256,59.2001,-0.000725
79.272,59.2001,-0.000725
79.287,59.2001,-0.000725
79.304,59.2001,-0.000725
79.320,59.2001,-0.000725
79.335,59.2001,-0.000725
79.352,59.2001,-0.000725
79.368,59.2001,-0.000725
79.383,59.2001,-0.000725
79.400,59.2001,-0.000781
79.415,59.2001,-0.000781
79.431,59.2001,-0.000781
79.448,59.2001,-0.000781
79.475,59.2001,-0.000781
79.495,59.2001,-0.000781
79.511,59.2001,-0.000781
79.533,59.2001,-0.000781
79.550,59.2001,-0.000781
79.565,59.2001,-0.000781
79.581,59.2001,-0.000781
79.597,59.2001,-0.000781
79.614,59.2001,-0.000781
79.629,59.2001,-0.000781
79.645,59.2001,-0.000847
79.661,59.2001,-0.000847
79.677,59.2001,-0.000847
79.693,59.2001,-0.000847
79.709,59.2001,-0.000847
79.725,59.2001,-0.000847
79.741,59.2001,-0.000847
79.757,59.2001,-0.000847
79.773,59.2001,-0.000847
79.789,59.2001,-0.000847
79.805,59.2001,-0.000847
79.821,59.2001,-0.000847
79.837,59.2001,-0.000847
79.853,59.2001,-0.000847
79.869,59.2001,-0.000847
79.886,59.2001,-0.000847
79.905,59.2001,-0.000847
79.935,59.2001,-0.000791
79.951,59.2001,-0.000791
79.982,59.2001,-0.000791
79.997,59.2001,-0.000791
80.015,59.2001,-0.000791
80.044,59.2001,-0.000791
80.073,59.2001,-0.000791
80.089,59.2001,-0.000791
80.105,59.2001,-0.000791
80.121,59.2001,-0.000791
80.141,59.2001,-0.000791
80.159,59.2001,-0.000791
80.184,59.2001,-0.000791
80.203,59.2001,-0.000791
80.229,59.2001,-0.000791
80.249,59.2001,-0.000791
80.265,59.2001,-0.000791
80.281,59.2001,-0.000791
80.297,59.2001,-0.000791
80.313,59.2001,-0.000791
80.330,59.2001,-0.000791
80.345,59.2001,-0.000791
80.361,59.2001,-0.000791
80.378,59.2001,-0.000791
80.402,59.2001,-0.000791
80.428,59.2001,-0.000819
80.444,59.2001,-0.000819
80.459,59.2001,-0.000819
80.475,59.2001,-0.000819
80.492,59.2001,-0.000819
80.507,59.2001,-0.000819
80.522,59.2001,-0.000819
80.553,59.2001,-0.000819
80.570,59.2001,-0.000819
80.599,59.2001,-0.000819
80.628,59.2001,-0.000819
80.644,59.2001,-0.000819
80.660,59.2001,-0.000819
80.676,59.2001,-0.000819
80.695,59.2001,-0.000819
80.722,59.2001,-0.000819
80.740,59.2001,-0.000819
80.756,59.2001,-0.000819
80.772,59.2001,-0.000819
80.789,59.2001,-0.000819
80.814,59.2001,-0.000819
80.845,59.2001,-0.000819
80.860,59.2001,-0.000819
80.891,59.2001,-0.000819
80.921,59.2001,-0.000810
80.951,59.2001,-0.000810
80.967,59.2001,-0.000810
80.998,59.2001,-0.000810
81.014,59.2001,-0.000810
81.044,59.2001,-0.000810
81.061,59.2001,-0.000810
81.091,59.2001,-0.000810
81.108,59.2001,-0.000810
81.124,59.2001,-0.000810
81.140,59.2001,-0.000810
81.156,59.2001,-0.000810
81.183,59.2001,-0.000762
81.199,59.2001,-0.000762
81.214,59.2001,-0.000762
81.231,59.2001,-0.000762
81.247,59.2001,-0.000762
81.262,59.2001,-0.000762
81.278,59.2001,-0.000762
81.294,59.2001,-0.000762
81.312,59.2001,-0.000762
81.327,59.2001,-0.000762
81.342,59.2001,-0.000762
81.359,59.2001,-0.000762
81.375,59.2001,-0.000762
81.390,59.2001,-0.000762
81.407,59.2001,-0.000753
81.422,59.2001,-0.000753
81.439,59.2001,-0.000753
81.456,59.2001,-0.000753
81.479,59.2001,-0.000753
81.495,59.2001,-0.000753
81.525,59.2001,-0.000753
81.556,59.2001,-0.000753
81.585,59.2001,-0.000753
81.616,59.2001,-0.000753
81.631,59.2001,-0.000753
81.647,59.2001,-0.000762
81.663,59.2001,-0.000762
81.679,59.2001,-0.000762
81.694,59.2001,-0.000762
81.722,59.2001,-0.000762
81.737,59.2001,-0.000762
81.753,59.2001,-0.000762
81.771,59.2001,-0.000762
81.790,59.2001,-0.000762
81.807,59.2001,-0.000762
81.833,59.2001,-0.000762
81.850,59.2001,-0.000762
81.866,59.2001,-0.000762
81.882,59.2001,-0.000762
81.898,59.2001,-0.000791
81.913,59.2001,-0.000791
81.930,59.2001,-0.000791
81.945,59.2001,-0.000791
81.962,59.2001,-0.000791
81.978,59.2001,-0.000791
81.994,59.2001,-0.000791
82.010,59.2001,-0.000791
82.026,59.2001,-0.000791
82.042,59.2001,-0.000791
82.057,59.2001,-0.000791
82.073,59.2001,-0.000791
82.090,59.2001,-0.000791
82.106,59.2001,-0.000791
82.122,59.2001,-0.000791
82.137,59.2001,-0.000791
82.154,59.2001,-0.000791
82.170,59.2001,-0.000800
82.185,59.2001,-0.000800
82.201,59.2001,-0.000800
82.217,59.2001,-0.000800
82.233,59.2001,-0.000800
82.264,59.2001,-0.000800
82.280,59.2001,-0.000800
82.296,59.2001,-0.000800
82.313,59.2001,-0.000800
82.330,59.2001,-0.000800
82.359,59.2001,-0.000800
82.376,59.2001,-0.000800
82.392,59.2001,-0.000800
82.408,59.2001,-0.000800
82.425,59.2001,-0.000838
82.440,59.2001,-0.000838
82.458,59.2001,-0.000838
82.483,59.2001,-0.000838
82.505,59.2000,-0.000838
82.520,59.1997,-0.000838
82.536,59.1992,-0.000838
82.552,59.1986,-0.000838
82.568,59.1978,-0.000838
82.584,59.1966,-0.000838
82.600,59.1954,-0.000838
82.616,59.1940,-0.000838
82.633,59.1923,-0.000838
82.648,59.1906,-0.000857
82.664,59.1884,-0.000857
82.680,59.1862,-0.000857
82.696,59.1839,-0.000857
82.712,59.1813,-0.000857
82.728,59.1784,-0.000857
82.744,59.1754,-0.000857
82.761,59.1722,-0.000857
82.777,59.1689,-0.000857
82.805,59.1623,-0.000857
82.822,59.1581,-0.000857
82.837,59.1541,-0.000857
82.853,59.1498,-0.000857
82.869,59.1454,-0.000857
82.885,59.1408,-0.000857
82.901,59.1359,-0.000772
82.917,59.1308,-0.000772
82.934,59.1251,-0.000772
82.963,59.1148,-0.000772
82.981,59.1085,-0.000772
82.998,59.1020,-0.000772
83.026,59.0907,-0.000772
83.045,59.0830,-0.000772
83.061,59.0761,-0.000772
83.077,59.0693,-0.000772
83.094,59.0617,-0.000772
83.110,59.0543,-0.000772
83.125,59.0469,-0.000772
83.141,59.0391,-0.000772
83.157,59.0314,-0.000715
83.173,59.0231,-0.000715
83.190,59.0139,-0.000715
83.205,59.0059,-0.000715
83.221,58.9973,-0.000715
83.237,58.9885,-0.000715
83.253,58.9791,-0.000715
83.269,58.9695,-0.000715
83.285,58.9605,-0.000715
83.301,58.9507,-0.000715
83.317,58.9407,-0.000715
83.333,58.9302,-0.000715
83.358,58.9145,-0.000715
83.375,58.9032,-0.000715
83.396,58.8886,-0.000687
83.428,58.8661,-0.000687
83.458,58.8447,-0.000687
83.489,58.8215,-0.000687
83.520,58.7977,-0.000687
83.551,58.7730,-0.000687
83.567,58.7602,-0.000687
83.583,58.7468,-0.000687
83.599,58.7334,-0.000687
83.630,58.7075,-0.000687
83.646,58.6937,-0.000640
83.663,58.6786,-0.000640
83.678,58.6648,-0.000640
83.694,58.6501,-0.000640
83.710,58.6359,-0.000640
83.727,58.6203,-0.000640
83.756,58.5930,-0.000640
83.774,58.5755,-0.000640
83.791,58.5590,-0.000640
83.806,58.5435,-0.000640
83.822,58.5280,-0.000640
83.838,58.5117,-0.000640
83.854,58.4945,-0.000640
83.870,58.4787,-0.000640
83.886,58.4617,-0.000640
83.908,58.4380,-0.000574
83.924,58.4204,-0.000574
83.940,58.4036,-0.000574
83.956,58.3855,-0.000574
83.972,58.3680,-0.000574
83.988,58.3501,-0.000574
84.004,58.3319,-0.000574
84.020,58.3135,-0.000574
84.038,58.2919,-0.000574
84.062,58.2630,-0.000574
84.084,58.2372,-0.000574
84.100,58.2180,-0.000574
84.116,58.1985,-0.000574
84.132,58.1790,-0.000574
84.148,58.1588,-0.000518
84.163,58.1388,-0.000518
84.180,58.1184,-0.000518
84.196,58.0974,-0.000518
84.212,58.0763,-0.000518
84.228,58.0556,-0.000518
84.244,58.0350,-0.000518
84.259,58.0137,-0.000518
84.276,57.9914,-0.000518
84.292,57.9704,-0.000518
84.308,57.9480,-0.000518
84.324,57.9263,-0.000518
84.340,57.9039,-0.000518
84.356,57.8816,-0.000518
84.372,57.8588,-0.000518
84.388,57.8358,-0.000518
84.404,57.8115,-0.000518
84.420,57.7887,-0.000518
84.447,57.7494,-0.000452
84.463,57.7253,-0.000452
84.478,57.7019,-0.000452
84.495,57.6767,-0.000452
84.510,57.6535,-0.000452
84.527,57.6274,-0.000452
84.542,57.6044,-0.000452
84.560,57.5770,-0.000452
84.575,57.5532,-0.000452
84.591,57.5279,-0.000452
84.607,57.5028,-0.000452
84.624,57.4751,-0.000452
84.652,57.4281,-0.000442
84.671,57.3971,-0.000442
84.687,57.3705,-0.000442
84.702,57.3460,-0.000442
84.718,57.3190,-0.000442
84.735,57.2916,-0.000442
84.751,57.2640,-0.000442
84.767,57.2366,-0.000442
84.782,57.2094,-0.000442
84.799,57.1810,-0.000442
84.815,57.1526,-0.000442
84.830,57.1253,-0.000442
84.846,57.0970,-0.000442
84.862,57.0684,-0.000442
84.878,57.0394,-0.000442
84.895,57.0079,-0.000348
84.910,56.9812,-0.000348
84.927,56.9516,-0.000348
84.942,56.9220,-0.000348
84.958,56.8922,-0.000348
84.985,56.8402,-0.000348
85.002,56.8102,-0.000348
85.017,56.7812,-0.000348
85.034,56.7475,-0.000348
85.054,56.7085,-0.000348
85.069,56.6795,-0.000348
85.096,56.6284,-0.000348
85.113,56.5938,-0.000348
85.130,56.5601,-0.000348
85.157,56.5058,-0.000207
85.178,56.4634,-0.000207
85.194,56.4317,-0.000207
85.209,56.3995,-0.000207
85.225,56.3668,-0.000207
85.242,56.3309,-0.000207
85.257,56.2988,-0.000207
85.273,56.2665,-0.000207
85.289,56.2325,-0.000207
85.306,56.1968,-0.000207
85.322,56.1619,-0.000207
85.337,56.1304,-0.000207
85.353,56.0964,-0.000207
85.370,56.0617,-0.000207
85.385,56.0293,-0.000104
85.401,55.9960,-0.000104
85.417,55.9620,-0.000104
85.433,55.9294,-0.000104
85.449,55.8966,-0.000104
85.465,55.8649,-0.000104
85.482,55.8309,-0.000104
85.497,55.8004,-0.000104
85.513,55.7685,-0.000104
85.539,55.7168,-0.000104
85.556,55.6835,-0.000104
85.575,55.6455,-0.000104
85.590,55.6152,-0.000104
85.606,55.5856,-0.000104
85.622,55.5559,-0.000104
85.638,55.5259,-0.000113
85.669,55.4669,-0.000113
85.684,55.4391,-0.000113
85.699,55.4101,-0.000113
85.715,55.3815,-0.000113
85.731,55.3520,-0.000113
85.747,55.3233,-0.000113
85.763,55.2944,-0.000113
85.779,55.2656,-0.000113
85.795,55.2373,-0.000113
85.811,55.2079,-0.000113
85.828,55.1795,-0.000113
85.843,55.1521,-0.000113
85.859,55.1252,-0.000113
85.876,55.0951,-0.000113
85.891,55.0685,-0.000113
85.907,55.0430,-0.000113
85.923,55.0159,-0.000198
85.939,54.9890,-0.000198
85.955,54.9626,-0.000198
85.971,54.9353,-0.000198
85.987,54.9099,-0.000198
86.003,54.8837,-0.000198
86.019,54.8579,-0.000198
86.035,54.8322,-0.000198
86.064,54.7855,-0.000198
86.080,54.7603,-0.000198
86.098,54.7333,-0.000198
86.114,54.7086,-0.000198
86.130,54.6826,-0.000198
86.161,54.6374,-0.000292
86.176,54.6143,-0.000292
86.192,54.5898,-0.000292
86.208,54.5670,-0.000292
86.225,54.5427,-0.000292
86.253,54.5014,-0.000292
86.275,54.4694,-0.000292
86.300,54.4359,-0.000292
86.321,54.4068,-0.000292
86.336,54.3866,-0.000292
86.352,54.3648,-0.000292
86.368,54.3432,-0.000292
86.384,54.3219,-0.000292
86.400,54.2996,-0.000631
86.416,54.2796,-0.000631
86.432,54.2585,-0.000631
86.448,54.2374,-0.000631
86.464,54.2175,-0.000631
86.480,54.1975,-0.000631
86.496,54.1774,-0.000631
86.512,54.1573,-0.000631
86.529,54.1370,-0.000631
86.544,54.1185,-0.000631
86.560,54.0991,-0.000631
86.577,54.0789,-0.000631
86.593,54.0598,-0.000631
86.620,54.0275,-0.000631
86.636,54.0096,-0.000631
86.652,53.9916,-0.000922
86.668,53.9736,-0.000922
86.684,53.9564,-0.000922
86.701,53.9370,-0.000922
86.717,53.9199,-0.000922
86.732,53.9044,-0.000922
86.748,53.8867,-0.000922
86.764,53.8698,-0.000922
86.780,53.8538,-0.000922
86.796,53.8375,-0.000922
86.812,53.8205,-0.000922
86.828,53.8045,-0.000922
86.845,53.7885,-0.000922
86.860,53.7726,-0.000922
86.877,53.7573,-0.000922
86.892,53.7425,-0.000922
86.908,53.7278,-0.000979
86.924,53.7131,-0.000979
86.940,53.6979,-0.000979
86.956,53.6835,-0.000979
86.972,53.6697,-0.000979
86.988,53.6549,-0.000979
87.004,53.6413,-0.000979
87.020,53.6280,-0.000979
87.036,53.6141,-0.000979
87.052,53.6009,-0.000979
87.068,53.5874,-0.000979
87.084,53.5751,-0.000979
87.100,53.5618,-0.000979
87.116,53.5489,-0.000979
87.132,53.5369,-0.000979
87.148,53.5248,-0.000979
87.177,53.5035,-0.000951
87.193,53.4917,-0.000951
87.209,53.4806,-0.000951
87.225,53.4690,-0.000951
87.241,53.4582,-0.000951
87.257,53.4473,-0.000951
87.272,53.4370,-0.000951
87.288,53.4267,-0.000951
87.306,53.4154,-0.000951
87.334,53.3979,-0.000951
87.353,53.3865,-0.000951
87.369,53.3771,-0.000951
87.385,53.3678,-0.000951
87.400,53.3590,-0.000922
87.417,53.3500,-0.000922
87.433,53.3406,-0.000922
87.448,53.3328,-0.000922
87.465,53.3241,-0.000922
87.481,53.3164,-0.000922
87.498,53.3075,-0.000922
87.521,53.2967,-0.000922
87.553,53.2817,-0.000922
87.583,53.2691,-0.000922
87.613,53.2564,-0.000922
87.629,53.2503,-0.000922
87.659,53.2387,-0.000941
87.689,53.2281,-0.000941
87.704,53.2229,-0.000941
87.732,53.2139,-0.000941
87.748,53.2092,-0.000941
87.764,53.2044,-0.000941
87.781,53.1999,-0.000941
87.797,53.1956,-0.000941
87.813,53.1914,-0.000941
87.828,53.1877,-0.000941
87.844,53.1840,-0.000941
87.860,53.1804,-0.000941
87.876,53.1772,-0.000941
87.892,53.1739,-0.000932
87.909,53.1708,-0.000932
87.925,53.1681,-0.000932
87.940,53.1656,-0.000932
87.957,53.1633,-0.000932
87.973,53.1610,-0.000932
87.999,53.1581,-0.000932
88.030,53.1550,-0.000932
88.045,53.1537,-0.000932
88.062,53.1526,-0.000932
88.092,53.1511,-0.000932
88.122,53.1502,-0.000932
88.137,53.1501,-0.000932
88.168,53.1501,-0.000951
88.185,53.1501,-0.000951
88.215,53.1501,-0.000951
88.231,53.1501,-0.000951
88.261,53.1501,-0.000951
88.289,53.1501,-0.000951
88.305,53.1501,-0.000951
88.321,53.1501,-0.000951
88.337,53.1501,-0.000951
88.353,53.1504,-0.000951
88.370,53.1507,-0.000951
88.385,53.1512,-0.000885
88.401,53.1520,-0.000885
88.424,53.1535,-0.000885
88.446,53.1552,-0.000885
88.466,53.1571,-0.000885
88.482,53.1588,-0.000885
88.498,53.1607,-0.000885
88.513,53.1628,-0.000885
88.529,53.1651,-0.000885
88.546,53.1676,-0.000885
88.562,53.1703,-0.000885
88.577,53.1731,-0.000885
88.593,53.1762,-0.000885
88.609,53.1795,-0.000885
88.625,53.1831,-0.000885
88.641,53.1866,-0.000960
88.657,53.1904,-0.000960
88.673,53.1945,-0.000960
88.689,53.1987,-0.000960
88.705,53.2032,-0.000960
88.721,53.2079,-0.000960
88.738,53.2129,-0.000960
88.753,53.2176,-0.000960
88.769,53.2229,-0.000960
88.785,53.2284,-0.000960
88.811,53.2376,-0.000960
88.827,53.2435,-0.000960
88.843,53.2495,-0.000960
88.859,53.2560,-0.000960
88.875,53.2624,-0.000960
88.891,53.2689,-0.000988
88.907,53.2759,-0.000988
88.923,53.2831,-0.000988
88.939,53.2901,-0.000988
88.955,53.2977,-0.000988
88.971,53.3053,-0.000988
88.987,53.3131,-0.000988
89.003,53.3211,-0.000988
89.019,53.3293,-0.000988
89.036,53.3385,-0.000988
89.053,53.3479,-0.000988
89.083,53.3648,-0.000988
89.103,53.3762,-0.000988
89.130,53.3923,-0.000988
89.147,53.4024,-0.000857
89.164,53.4130,-0.000857
89.192,53.4309,-0.000857
89.214,53.4457,-0.000857
89.238,53.4615,-0.000857
89.259,53.4761,-0.000857
89.275,53.4877,-0.000857
89.291,53.4995,-0.000857
89.307,53.5114,-0.000857
89.323,53.5232,-0.000857
89.347,53.5413,-0.000857
89.362,53.5531,-0.000857
89.377,53.5650,-0.000857
89.394,53.5779,-0.000932
89.410,53.5916,-0.000932
89.426,53.6043,-0.000932
89.442,53.6181,-0.000932
89.458,53.6320,-0.000932
89.479,53.6508,-0.000932
89.502,53.6698,-0.000932
89.522,53.6869,-0.000932
89.539,53.7035,-0.000932
89.555,53.7177,-0.000932
89.579,53.7396,-0.000932
89.609,53.7697,-0.000932
89.640,53.7990,-0.000932
89.670,53.8295,-0.000951
89.685,53.8449,-0.000951
89.700,53.8605,-0.000951
89.716,53.8762,-0.000951
89.746,53.9085,-0.000951
89.761,53.9249,-0.000951
89.785,53.9513,-0.000951
89.807,53.9756,-0.000951
89.825,53.9957,-0.000951
89.842,54.0146,-0.000951
89.857,54.0327,-0.000951
89.873,54.0513,-0.000951
89.898,54.0798,-0.000951
89.915,54.0999,-0.000951
89.945,54.1357,-0.000875
89.962,54.1574,-0.000875
89.978,54.1770,-0.000875
89.993,54.1970,-0.000875
90.009,54.2167,-0.000875
90.026,54.2389,-0.000875
90.047,54.2648,-0.000875
90.069,54.2936,-0.000875
90.090,54.3224,-0.000875
90.106,54.3432,-0.000875
90.121,54.3636,-0.000875
90.138,54.3859,-0.000885
90.154,54.4083,-0.000885
90.170,54.4312,-0.000885
90.194,54.4635,-0.000885
90.209,54.4860,-0.000885
90.225,54.5092,-0.000885
90.241,54.5310,-0.000885
90.257,54.5544,-0.000885
90.287,54.6003,-0.000885
90.303,54.6222,-0.000885
90.318,54.6450,-0.000885
90.349,54.6935,-0.000885
90.380,54.7402,-0.000885
90.396,54.7647,-0.000885
90.411,54.7903,-0.000885
90.427,54.8130,-0.000885
90.455,54.8585,-0.000922
90.472,54.8858,-0.000922
90.504,54.9369,-0.000922
90.520,54.9659,-0.000922
90.550,55.0147,-0.000922
90.567,55.0436,-0.000922
90.583,55.0706,-0.000922
90.599,55.0979,-0.000922
90.616,55.1271,-0.000922
90.631,55.1533,-0.000922
90.649,55.1844,-0.000922
90.676,55.2315,-0.000904
90.695,55.2663,-0.000904
90.712,55.2965,-0.000904
90.728,55.3249,-0.000904
90.743,55.3527,-0.000904
90.760,55.3829,-0.000904
90.775,55.4128,-0.000904
90.792,55.4426,-0.000904
90.807,55.4718,-0.000904
90.824,55.5022,-0.000904
90.839,55.5319,-0.000904
90.855,55.5621,-0.000904
90.871,55.5933,-0.000904
90.887,55.6239,-0.000904
90.904,55.6561,-0.000904
90.919,55.6864,-0.000894
90.935,55.7177,-0.000894
90.951,55.7497,-0.000894
90.978,55.8027,-0.000894
90.994,55.8354,-0.000894
91.011,55.8681,-0.000894
91.027,55.9005,-0.000894
91.043,55.9344,-0.000894
91.058,55.9657,-0.000894
91.075,56.0013,-0.000894
91.091,56.0337,-0.000894
91.107,56.0663,-0.000894
91.122,56.0998,-0.000894
91.138,56.1333,-0.000894
91.155,56.1691,-0.000894
91.170,56.2023,-0.000904
91.186,56.2346,-0.000904
91.205,56.2741,-0.000904
91.234,56.3334,-0.000904
91.250,56.3683,-0.000904
91.267,56.4026,-0.000904
91.283,56.4340,-0.000904
91.298,56.4661,-0.000904
91.314,56.4976,-0.000904
91.330,56.5294,-0.000904
91.346,56.5614,-0.000904
91.362,56.5930,-0.000904
91.378,56.6241,-0.000904
91.396,56.6621,-0.000904
91.420,56.7054,-0.000904
91.436,56.7358,-0.000565
91.452,56.7675,-0.000565
91.482,56.8234,-0.000565
91.497,56.8521,-0.000565
91.519,56.8929,-0.000565
91.535,56.9222,-0.000565
91.550,56.9491,-0.000565
91.566,56.9785,-0.000565
91.583,57.0086,-0.000565
91.598,57.0366,-0.000565
91.614,57.0642,-0.000565
91.630,57.0926,-0.000565
91.646,57.1212,-0.000565
91.662,57.1486,-0.000565
91.678,57.1773,-0.000198
91.694,57.2038,-0.000198
91.710,57.2314,-0.000198
91.726,57.2586,-0.000198
91.742,57.2861,-0.000198
91.758,57.3122,-0.000198
91.774,57.3394,-0.000198
91.790,57.3659,-0.000198
91.806,57.3916,-0.000198
91.823,57.4191,-0.000198
91.846,57.4588,-0.000198
91.869,57.4937,-0.000198
91.886,57.5195,-0.000217
91.902,57.5461,-0.000217
91.917,57.5693,-0.000217
91.934,57.5940,-0.000217
91.950,57.6189,-0.000217
91.966,57.6436,-0.000217
91.982,57.6668,-0.000217
91.998,57.6906,-0.000217
92.014,57.7144,-0.000217
92.030,57.7379,-0.000217
92.046,57.7613,-0.000217
92.062,57.7851,-0.000217
92.078,57.8081,-0.000217
92.094,57.8300,-0.000217
92.110,57.8533,-0.000217
92.126,57.8747,-0.000217
92.142,57.8972,-0.000217
92.158,57.9188,-0.000414
92.174,57.9411,-0.000414
92.190,57.9621,-0.000414
92.206,57.9836,-0.000414
92.222,58.0058,-0.000414
92.238,58.0256,-0.000414
92.254,58.0479,-0.000414
92.276,58.0756,-0.000414
92.303,58.1086,-0.000414
92.318,58.1292,-0.000414
92.334,58.1480,-0.000414
92.351,58.1687,-0.000414
92.379,58.2032,-0.000414
92.400,58.2276,-0.000414
92.426,58.2572,-0.000508
92.446,58.2806,-0.000508
92.462,58.2992,-0.000508
92.478,58.3166,-0.000508
92.494,58.3349,-0.000508
92.511,58.3543,-0.000508
92.534,58.3797,-0.000508
92.565,58.4119,-0.000508
92.581,58.4288,-0.000508
92.610,58.4597,-0.000508
92.631,58.4806,-0.000508
92.656,58.5057,-0.000508
92.672,58.5215,-0.000508
92.702,58.5500,-0.000508
92.718,58.5649,-0.000508
92.734,58.5799,-0.000508
92.750,58.5947,-0.000508
92.765,58.6088,-0.000508
92.782,58.6232,-0.000508
92.801,58.6409,-0.000508
92.825,58.6617,-0.000508
92.846,58.6788,-0.000508
92.863,58.6933,-0.000508
92.887,58.7132,-0.000508
92.903,58.7260,-0.000555
92.934,58.7508,-0.000555
92.949,58.7626,-0.000555
92.965,58.7741,-0.000555
92.995,58.7973,-0.000555
93.010,58.8081,-0.000555
93.041,58.8298,-0.000555
93.071,58.8506,-0.000555
93.087,58.8605,-0.000555
93.107,58.8740,-0.000555
93.124,58.8847,-0.000555
93.140,58.8948,-0.000565
93.156,58.9044,-0.000565
93.171,58.9140,-0.000565
93.187,58.9234,-0.000565
93.203,58.9326,-0.000565
93.220,58.9421,-0.000565
93.236,58.9509,-0.000565
93.251,58.9593,-0.000565
93.268,58.9679,-0.000565
93.284,58.9762,-0.000565
93.299,58.9843,-0.000565
93.316,58.9922,-0.000565
93.332,59.0001,-0.000565
93.347,59.0073,-0.000565
93.364,59.0151,-0.000565
93.395,59.0291,-0.000574
93.412,59.0359,-0.000574
93.428,59.0422,-0.000574
93.444,59.0487,-0.000574
93.460,59.0548,-0.000574
93.476,59.0611,-0.000574
93.491,59.0664,-0.000574
93.508,59.0722,-0.000574
93.524,59.0776,-0.000574
93.539,59.0827,-0.000574
93.555,59.0876,-0.000574
93.572,59.0926,-0.000574
93.587,59.0972,-0.000574
93.605,59.1020,-0.000574
93.629,59.1085,-0.000574
93.659,59.1155,-0.000602
93.674,59.1190,-0.000602
93.706,59.1254,-0.000602
93.722,59.1284,-0.000602
93.752,59.1336,-0.000602
93.768,59.1360,-0.000602
93.784,59.1382,-0.000602
93.814,59.1419,-0.000602
93.830,59.1436,-0.000602
93.860,59.1463,-0.000602
93.875,59.1473,-0.000602
93.893,59.1484,-0.000602
93.922,59.1495,-0.000668
93.939,59.1500,-0.000668
93.956,59.1501,-0.000668
93.972,59.1501,-0.000668
93.988,59.1501,-0.000668
94.003,59.1501,-0.000668
94.024,59.1501,-0.000668
94.047,59.1501,-0.000668
94.068,59.1501,-0.000668
94.084,59.1501,-0.000668
94.100,59.1501,-0.000668
94.115,59.1501,-0.000668
94.131,59.1501,-0.000668
94.149,59.1501,-0.000668
94.171,59.1501,-0.000668
94.202,59.1501,-0.000772
94.232,59.1501,-0.000772
94.248,59.1501,-0.000772
94.263,59.1501,-0.000772
94.278,59.1501,-0.000772
94.309,59.1501,-0.000772
94.326,59.1501,-0.000772
94.342,59.1501,-0.000772
94.358,59.1501,-0.000772
94.389,59.1501,-0.000772
94.420,59.1501,-0.000772
94.437,59.1501,-0.000772
94.452,59.1501,-0.000772
94.467,59.1501,-0.000772
94.484,59.1501,-0.000772
94.499,59.1501,-0.000772
94.515,59.1501,-0.000772
94.531,59.1501,-0.000772
94.547,59.1501,-0.000772
94.563,59.1501,-0.000772
94.579,59.1501,-0.000772
