Elapsed Time (s),Position (mm),Force (N)
-0.016,57.4500,-0.000348
0.001,57.4500,-0.000348
0.020,57.4500,-0.000348
0.042,57.4500,-0.000348
0.073,57.4500,-0.000348
0.104,57.4500,-0.000348
0.135,57.4500,-0.000311
0.166,57.4500,-0.000311
0.182,57.4500,-0.000311
0.197,57.4500,-0.000311
0.229,57.4500,-0.000311
0.260,57.4500,-0.000311
0.290,57.4500,-0.000311
0.322,57.4500,-0.000311
0.352,57.4500,-0.000329
0.369,57.4500,-0.000329
0.384,57.4500,-0.000329
0.400,57.4500,-0.000329
0.416,57.4500,-0.000329
0.432,57.4500,-0.000329
0.448,57.4500,-0.000329
0.464,57.4500,-0.000329
0.488,57.4500,-0.000329
0.508,57.4500,-0.000329
0.528,57.4500,-0.000329
0.545,57.4500,-0.000329
0.561,57.4500,-0.000329
0.576,57.4500,-0.000329
0.592,57.4500,-0.000329
0.608,57.4500,-0.000367
0.625,57.4500,-0.000367
0.640,57.4500,-0.000367
0.656,57.4500,-0.000367
0.673,57.4500,-0.000367
0.692,57.4500,-0.000367
0.708,57.4500,-0.000367
0.724,57.4500,-0.000367
0.739,57.4500,-0.000367
0.770,57.4500,-0.000367
0.802,57.4500,-0.000367
0.818,57.4500,-0.000367
0.849,57.4500,-0.000367
0.865,57.4500,-0.000367
0.880,57.4500,-0.000367
0.896,57.4500,-0.000367
0.912,57.4500,-0.000367
0.928,57.4500,-0.000367
0.944,57.4500,-0.000367
0.959,57.4500,-0.000367
0.976,57.4500,-0.000367
0.993,57.4500,-0.000367
1.020,57.4500,-0.000367
1.040,57.4500,-0.000367
1.056,57.4500,-0.000367
1.073,57.4500,-0.000367
1.098,57.4500,-0.000358
1.120,57.4500,-0.000358
1.136,57.4500,-0.000358
1.152,57.4500,-0.000358
1.167,57.4500,-0.000358
1.200,57.4500,-0.000358
1.215,57.4500,-0.000358
1.230,57.4500,-0.000358
1.246,57.4500,-0.000358
1.262,57.4500,-0.000358
1.279,57.4500,-0.000358
1.295,57.4500,-0.000358
1.310,57.4500,-0.000358
1.326,57.4500,-0.000358
1.343,57.4500,-0.000358
1.359,57.4500,-0.000358
1.374,57.4500,-0.000358
1.391,57.4500,-0.000358
1.407,57.4500,-0.000358
1.424,57.4500,-0.000358
1.454,57.4500,-0.000358
1.471,57.4500,-0.000358
1.487,57.4500,-0.000358
1.503,57.4500,-0.000358
1.518,57.4500,-0.000358
1.535,57.4500,-0.000358
1.550,57.4500,-0.000358
1.567,57.4500,-0.000358
1.583,57.4500,-0.000358
1.598,57.4500,-0.000358
1.615,57.4500,-0.000358
1.631,57.4500,-0.000358
1.646,57.4500,-0.000320
1.663,57.4500,-0.000320
1.678,57.4500,-0.000320
1.694,57.4500,-0.000320
1.710,57.4500,-0.000320
1.734,57.4500,-0.000320
1.750,57.4500,-0.000320
1.766,57.4500,-0.000320
1.781,57.4500,-0.000320
1.797,57.4500,-0.000320
1.813,57.4500,-0.000320
1.830,57.4500,-0.000320
1.845,57.4500,-0.000320
1.862,57.4500,-0.000320
1.878,57.4500,-0.000320
1.893,57.4500,-0.000358
1.909,57.4500,-0.000358
1.926,57.4500,-0.000358
1.942,57.4500,-0.000358
1.957,57.4500,-0.000358
1.973,57.4500,-0.000358
1.989,57.4500,-0.000358
2.005,57.4500,-0.000358
2.021,57.4500,-0.000358
2.037,57.4500,-0.000358
2.053,57.4500,-0.000358
2.070,57.4500,-0.000358
2.085,57.4500,-0.000358
2.102,57.4500,-0.000358
2.117,57.4500,-0.000358
2.134,57.4500,-0.000386
2.149,57.4500,-0.000386
2.166,57.4500,-0.000386
2.196,57.4500,-0.000386
2.214,57.4500,-0.000386
2.229,57.4500,-0.000386
2.245,57.4500,-0.000386
2.265,57.4500,-0.000386
2.289,57.4500,-0.000386
2.310,57.4500,-0.000386
2.334,57.4500,-0.000386
2.354,57.4500,-0.000386
2.382,57.4500,-0.000386
2.400,57.4500,-0.000386
2.416,57.4500,-0.000386
2.432,57.4500,-0.000386
2.449,57.4500,-0.000386
2.465,57.4500,-0.000386
2.481,57.4500,-0.000386
2.497,57.4500,-0.000386
2.512,57.4500,-0.000386
2.528,57.4500,-0.000386
2.545,57.4500,-0.000386
2.567,57.4500,-0.000386
2.582,57.4500,-0.000386
2.613,57.4500,-0.000386
2.644,57.4500,-0.000405
2.675,57.4500,-0.000405
2.706,57.4500,-0.000405
2.737,57.4500,-0.000405
2.768,57.4500,-0.000405
2.787,57.4500,-0.000405
2.815,57.4500,-0.000405
2.837,57.4500,-0.000405
2.860,57.4500,-0.000395
2.878,57.4500,-0.000395
2.894,57.4500,-0.000395
2.910,57.4500,-0.000395
2.929,57.4500,-0.000395
2.954,57.4500,-0.000395
2.974,57.4500,-0.000395
2.991,57.4500,-0.000395
3.006,57.4500,-0.000395
3.022,57.4500,-0.000395
3.038,57.4500,-0.000395
3.054,57.4500,-0.000395
3.071,57.4500,-0.000395
3.086,57.4500,-0.000395
3.102,57.4500,-0.000395
3.118,57.4500,-0.000358
3.134,57.4500,-0.000358
3.151,57.4500,-0.000358
3.166,57.4500,-0.000358
3.182,57.4500,-0.000358
3.198,57.4500,-0.000358
3.214,57.4500,-0.000358
3.230,57.4500,-0.000358
3.246,57.4500,-0.000358
3.262,57.4500,-0.000358
3.278,57.4500,-0.000358
3.294,57.4500,-0.000358
3.310,57.4500,-0.000358
3.337,57.4500,-0.000358
3.353,57.4500,-0.000358
3.369,57.4500,-0.000301
3.385,57.4500,-0.000301
3.401,57.4500,-0.000301
3.417,57.4500,-0.000301
3.433,57.4500,-0.000301
3.449,57.4500,-0.000301
3.465,57.4500,-0.000301
3.481,57.4500,-0.000301
3.497,57.4500,-0.000301
3.513,57.4500,-0.000301
3.534,57.4500,-0.000301
3.556,57.4500,-0.000301
3.577,57.4500,-0.000301
3.593,57.4500,-0.000301
3.609,57.4500,-0.000301
3.625,57.4500,-0.000339
3.641,57.4500,-0.000339
3.657,57.4500,-0.000339
3.673,57.4500,-0.000339
3.689,57.4500,-0.000339
3.705,57.4500,-0.000339
3.722,57.4500,-0.000339
3.743,57.4500,-0.000339
3.774,57.4500,-0.000339
3.805,57.4500,-0.000339
3.837,57.4500,-0.000339
3.860,57.4500,-0.000339
3.876,57.4500,-0.000339
3.892,57.4500,-0.000386
3.908,57.4500,-0.000386
3.924,57.4500,-0.000386
3.940,57.4500,-0.000386
3.956,57.4500,-0.000386
3.972,57.4500,-0.000386
3.988,57.4500,-0.000386
4.004,57.4500,-0.000386
4.020,57.4500,-0.000386
4.036,57.4500,-0.000386
4.052,57.4500,-0.000386
4.068,57.4500,-0.000386
4.084,57.4499,-0.000386
4.100,57.4496,-0.000386
4.116,57.4491,-0.000367
4.132,57.4484,-0.000367
4.155,57.4470,-0.000367
4.180,57.4452,-0.000367
4.197,57.4437,-0.000367
4.224,57.4406,-0.000367
4.243,57.4382,-0.000367
4.260,57.4360,-0.000367
4.276,57.4335,-0.000367
4.292,57.4309,-0.000367
4.307,57.4281,-0.000367
4.324,57.4251,-0.000367
4.339,57.4219,-0.000367
4.355,57.4185,-0.000367
4.371,57.4145,-0.000367
4.395,57.4092,-0.000282
4.411,57.4052,-0.000282
4.427,57.4009,-0.000282
4.443,57.3966,-0.000282
4.459,57.3917,-0.000282
4.475,57.3869,-0.000282
4.491,57.3818,-0.000282
4.507,57.3768,-0.000282
4.523,57.3713,-0.000282
4.538,57.3658,-0.000282
4.555,57.3598,-0.000282
4.571,57.3539,-0.000282
4.587,57.3476,-0.000282
4.602,57.3415,-0.000282
4.619,57.3344,-0.000198
4.635,57.3277,-0.000198
4.650,57.3210,-0.000198
4.667,57.3137,-0.000198
4.682,57.3066,-0.000198
4.699,57.2990,-0.000198
4.715,57.2908,-0.000198
4.731,57.2833,-0.000198
4.747,57.2750,-0.000198
4.762,57.2670,-0.000198
4.778,57.2583,-0.000198
4.794,57.2497,-0.000198
4.811,57.2405,-0.000198
4.827,57.2315,-0.000198
4.842,57.2219,-0.000198
4.859,57.2126,-0.000188
4.874,57.2033,-0.000188
4.891,57.1917,-0.000188
4.907,57.1827,-0.000188
4.923,57.1729,-0.000188
4.950,57.1545,-0.000188
4.966,57.1437,-0.000188
4.982,57.1328,-0.000188
4.999,57.1207,-0.000188
5.016,57.1087,-0.000188
5.046,57.0869,-0.000188
5.062,57.0755,-0.000188
5.078,57.0626,-0.000188
5.107,57.0402,-0.000179
5.125,57.0259,-0.000179
5.141,57.0126,-0.000179
5.157,57.0002,-0.000179
5.174,56.9859,-0.000179
5.190,56.9729,-0.000179
5.206,56.9588,-0.000179
5.222,56.9450,-0.000179
5.247,56.9233,-0.000179
5.263,56.9079,-0.000179
5.285,56.8881,-0.000179
5.301,56.8736,-0.000179
5.317,56.8580,-0.000179
5.334,56.8420,-0.000179
5.349,56.8278,-0.000132
5.365,56.8120,-0.000132
5.381,56.7963,-0.000132
5.398,56.7795,-0.000132
5.414,56.7632,-0.000132
5.429,56.7472,-0.000132
5.445,56.7307,-0.000132
5.461,56.7139,-0.000132
5.478,56.6969,-0.000132
5.509,56.6623,-0.000132
5.527,56.6427,-0.000132
5.559,56.6079,-0.000132
5.590,56.5716,-0.000132
5.605,56.5543,-0.000038
5.636,56.5179,-0.000038
5.652,56.4981,-0.000038
5.668,56.4797,-0.000038
5.684,56.4598,-0.000038
5.700,56.4400,-0.000038
5.716,56.4205,-0.000038
5.732,56.4007,-0.000038
5.748,56.3802,-0.000038
5.765,56.3591,-0.000038
5.780,56.3389,-0.000038
5.797,56.3171,-0.000038
5.822,56.2836,-0.000038
5.853,56.2426,-0.000038
5.868,56.2204,0.000085
5.900,56.1774,0.000085
5.931,56.1339,0.000085
5.961,56.0918,0.000085
5.977,56.0688,0.000085
5.992,56.0461,0.000085
6.024,56.0004,0.000085
6.054,55.9543,0.000085
6.069,55.9322,0.000085
6.085,55.9086,0.000085
6.116,55.8603,0.000104
6.134,55.8325,0.000104
6.163,55.7871,0.000104
6.180,55.7599,0.000104
6.196,55.7344,0.000104
6.212,55.7084,0.000104
6.228,55.6818,0.000104
6.244,55.6555,0.000104
6.260,55.6280,0.000104
6.277,55.6017,0.000104
6.292,55.5755,0.000104
6.308,55.5487,0.000104
6.324,55.5216,0.000104
6.341,55.4933,0.000104
6.364,55.4535,0.000141
6.395,55.3979,0.000141
6.413,55.3663,0.000141
6.441,55.3161,0.000141
6.472,55.2596,0.000141
6.503,55.2037,0.000141
6.534,55.1443,0.000141
6.551,55.1151,0.000141
6.566,55.0856,0.000141
6.591,55.0385,0.000141
6.607,55.0068,0.000141
6.629,54.9650,0.000245
6.660,54.9046,0.000245
6.676,54.8735,0.000245
6.705,54.8150,0.000245
6.736,54.7515,0.000245
6.768,54.6893,0.000245
6.783,54.6571,0.000245
6.814,54.5924,0.000245
6.832,54.5567,0.000245
6.861,54.4947,0.000028
6.878,54.4592,0.000028
6.894,54.4251,0.000028
6.910,54.3899,0.000028
6.926,54.3571,0.000028
6.942,54.3239,0.000028
6.959,54.2844,0.000028
6.986,54.2320,0.000028
7.006,54.1901,0.000028
7.022,54.1571,0.000028
7.038,54.1252,0.000028
7.055,54.0907,0.000028
7.070,54.0600,0.000028
7.086,54.0283,0.000028
7.102,53.9970,0.000028
7.118,53.9652,0.000028
7.143,53.9161,-0.000461
7.159,53.8843,-0.000461
7.174,53.8542,-0.000461
7.190,53.8256,-0.000461
7.207,53.7913,-0.000461
7.222,53.7629,-0.000461
7.237,53.7346,-0.000461
7.254,53.7036,-0.000461
7.271,53.6719,-0.000461
7.295,53.6270,-0.000461
7.325,53.5723,-0.000461
7.341,53.5439,-0.000461
7.372,53.4891,-0.000753
7.387,53.4618,-0.000753
7.418,53.4071,-0.000753
7.448,53.3561,-0.000753
7.478,53.3037,-0.000753
7.508,53.2521,-0.000753
7.526,53.2240,-0.000753
7.541,53.1977,-0.000753
7.558,53.1711,-0.000753
7.574,53.1442,-0.000753
7.602,53.0990,-0.000772
7.622,53.0670,-0.000772
7.638,53.0411,-0.000772
7.654,53.0162,-0.000772
7.670,52.9912,-0.000772
7.695,52.9529,-0.000772
7.711,52.9296,-0.000772
7.726,52.9055,-0.000772
7.742,52.8819,-0.000772
7.761,52.8543,-0.000772
7.787,52.8148,-0.000772
7.806,52.7877,-0.000772
7.823,52.7639,-0.000772
7.838,52.7416,-0.000772
7.854,52.7179,-0.000781
7.870,52.6963,-0.000781
7.887,52.6732,-0.000781
7.903,52.6509,-0.000781
7.918,52.6302,-0.000781
7.935,52.6071,-0.000781
7.950,52.5866,-0.000781
7.966,52.5655,-0.000781
7.982,52.5443,-0.000781
7.998,52.5232,-0.000781
8.015,52.5016,-0.000781
8.030,52.4821,-0.000781
8.046,52.4618,-0.000781
8.063,52.4397,-0.000781
8.081,52.4179,-0.000781
8.096,52.3989,-0.000781
8.128,52.3601,-0.000800
8.143,52.3422,-0.000800
8.159,52.3240,-0.000800
8.174,52.3056,-0.000800
8.192,52.2831,-0.000800
8.221,52.2519,-0.000800
8.250,52.2187,-0.000800
8.266,52.2005,-0.000800
8.282,52.1836,-0.000800
8.298,52.1660,-0.000800
8.315,52.1483,-0.000800
8.331,52.1318,-0.000800
8.346,52.1156,-0.000800
8.362,52.0989,-0.000800
8.380,52.0803,-0.000800
8.406,52.0546,-0.000800
8.426,52.0343,-0.000800
8.443,52.0185,-0.000800
8.459,52.0028,-0.000800
8.485,51.9775,-0.000800
8.506,51.9583,-0.000800
8.523,51.9434,-0.000800
8.547,51.9208,-0.000800
8.578,51.8941,-0.000800
8.609,51.8675,-0.000800
8.626,51.8538,-0.000800
8.656,51.8289,-0.000800
8.672,51.8160,-0.000800
8.703,51.7926,-0.000800
8.720,51.7798,-0.000800
8.749,51.7576,-0.000800
8.765,51.7461,-0.000800
8.793,51.7257,-0.000800
8.812,51.7128,-0.000800
8.842,51.6922,-0.000800
8.873,51.6723,-0.000800
8.888,51.6627,-0.000762
8.904,51.6527,-0.000762
8.922,51.6417,-0.000762
8.950,51.6244,-0.000762
8.969,51.6140,-0.000762
8.990,51.6019,-0.000762
9.013,51.5897,-0.000762
9.032,51.5796,-0.000762
9.048,51.5714,-0.000762
9.064,51.5631,-0.000762
9.080,51.5556,-0.000762
9.096,51.5480,-0.000762
9.113,51.5396,-0.000762
9.137,51.5290,-0.000762
9.153,51.5222,-0.000781
9.169,51.5151,-0.000781
9.184,51.5089,-0.000781
9.215,51.4969,-0.000781
9.231,51.4907,-0.000781
9.262,51.4799,-0.000781
9.277,51.4746,-0.000781
9.294,51.4690,-0.000781
9.316,51.4622,-0.000781
9.332,51.4572,-0.000781
9.348,51.4529,-0.000781
9.366,51.4474,-0.000781
9.386,51.4426,-0.000781
9.416,51.4352,-0.000828
9.447,51.4284,-0.000828
9.463,51.4252,-0.000828
9.494,51.4195,-0.000828
9.524,51.4147,-0.000828
9.540,51.4123,-0.000828
9.557,51.4103,-0.000828
9.572,51.4085,-0.000828
9.588,51.4067,-0.000828
9.604,51.4051,-0.000828
9.620,51.4039,-0.000828
9.636,51.4028,-0.000828
9.652,51.4019,-0.000828
9.668,51.4011,-0.000828
9.684,51.4005,-0.000828
9.700,51.4001,-0.000828
9.716,51.4000,-0.000828
9.733,51.4000,-0.000828
9.756,51.4000,-0.000828
9.786,51.4000,-0.000828
9.817,51.4000,-0.000828
9.833,51.4000,-0.000828
9.854,51.4000,-0.000828
9.870,51.4000,-0.000828
9.886,51.4000,-0.000715
9.902,51.4000,-0.000715
9.918,51.4000,-0.000715
9.934,51.4000,-0.000715
9.950,51.4000,-0.000715
9.966,51.4000,-0.000715
9.981,51.4000,-0.000715
9.997,51.4000,-0.000715
10.014,51.4000,-0.000715
10.030,51.4000,-0.000715
10.046,51.4000,-0.000715
10.062,51.4000,-0.000715
10.078,51.4000,-0.000715
10.097,51.4000,-0.000715
10.125,51.4000,-0.000659
10.142,51.4000,-0.000659
10.159,51.4000,-0.000659
10.186,51.4000,-0.000659
10.205,51.4000,-0.000659
10.223,51.4000,-0.000659
10.248,51.4000,-0.000659
10.279,51.4000,-0.000659
10.295,51.4000,-0.000659
10.326,51.4000,-0.000659
10.357,51.4000,-0.000659
10.387,51.4000,-0.000659
10.408,51.4000,-0.000744
10.423,51.4000,-0.000744
10.441,51.4000,-0.000744
10.465,51.4000,-0.000744
10.481,51.4000,-0.000744
10.512,51.4000,-0.000744
10.529,51.4003,-0.000744
10.559,51.4010,-0.000744
10.575,51.4018,-0.000744
10.590,51.4028,-0.000744
10.606,51.4037,-0.000744
10.622,51.4050,-0.000753
10.652,51.4082,-0.000753
10.685,51.4122,-0.000753
10.714,51.4165,-0.000753
10.745,51.4215,-0.000753
10.760,51.4245,-0.000753
10.791,51.4308,-0.000753
10.807,51.4344,-0.000753
10.823,51.4380,-0.000753
10.841,51.4426,-0.000753
10.869,51.4498,-0.000744
10.887,51.4550,-0.000744
10.903,51.4598,-0.000744
10.919,51.4645,-0.000744
10.936,51.4699,-0.000744
10.960,51.4780,-0.000744
10.976,51.4835,-0.000744
10.992,51.4893,-0.000744
11.008,51.4954,-0.000744
11.025,51.5016,-0.000744
11.041,51.5079,-0.000744
11.057,51.5146,-0.000744
11.072,51.5211,-0.000744
11.089,51.5285,-0.000744
11.105,51.5355,-0.000744
11.121,51.5429,-0.000828
11.136,51.5501,-0.000828
11.152,51.5578,-0.000828
11.169,51.5658,-0.000828
11.184,51.5738,-0.000828
11.200,51.5821,-0.000828
11.216,51.5908,-0.000828
11.232,51.5992,-0.000828
11.248,51.6081,-0.000828
11.265,51.6179,-0.000828
11.280,51.6265,-0.000828
11.297,51.6363,-0.000828
11.312,51.6456,-0.000828
11.328,51.6556,-0.000828
11.346,51.6673,-0.000828
11.362,51.6767,-0.000857
11.377,51.6870,-0.000857
11.394,51.6979,-0.000857
11.422,51.7179,-0.000857
11.440,51.7298,-0.000857
11.462,51.7456,-0.000857
11.487,51.7640,-0.000857
11.505,51.7776,-0.000857
11.531,51.7971,-0.000857
11.550,51.8122,-0.000857
11.566,51.8248,-0.000857
11.582,51.8377,-0.000857
11.599,51.8515,-0.000857
11.623,51.8719,-0.000857
11.654,51.8982,-0.000819
11.670,51.9125,-0.000819
11.700,51.9399,-0.000819
11.735,51.9721,-0.000819
11.763,51.9978,-0.000819
11.793,52.0271,-0.000819
11.824,52.0575,-0.000819
11.840,52.0726,-0.000819
11.855,52.0880,-0.000819
11.886,52.1204,-0.000800
11.904,52.1387,-0.000800
11.933,52.1697,-0.000800
11.950,52.1884,-0.000800
11.971,52.2134,-0.000800
11.995,52.2388,-0.000800
12.014,52.2606,-0.000800
12.040,52.2911,-0.000800
12.056,52.3085,-0.000800
12.072,52.3275,-0.000800
12.088,52.3462,-0.000800
12.104,52.3664,-0.000800
12.121,52.3865,-0.000800
12.136,52.4050,-0.000800
12.152,52.4250,-0.000800
12.168,52.4460,-0.000800
12.184,52.4650,-0.000800
12.200,52.4855,-0.000800
12.216,52.5057,-0.000800
12.232,52.5273,-0.000800
12.249,52.5486,-0.000800
12.272,52.5796,-0.000800
12.305,52.6249,-0.000800
12.333,52.6632,-0.000800
12.350,52.6853,-0.000800
12.380,52.7297,-0.000791
12.396,52.7516,-0.000791
12.427,52.7967,-0.000791
12.457,52.8414,-0.000791
12.473,52.8639,-0.000791
12.504,52.9104,-0.000791
12.520,52.9338,-0.000791
12.539,52.9637,-0.000791
12.567,53.0066,-0.000791
12.595,53.0503,-0.000791
12.611,53.0766,-0.000791
12.627,53.1010,-0.000781
12.643,53.1277,-0.000781
12.659,53.1530,-0.000781
12.675,53.1801,-0.000781
12.691,53.2063,-0.000781
12.707,53.2319,-0.000781
12.723,53.2598,-0.000781
12.739,53.2860,-0.000781
12.755,53.3125,-0.000781
12.770,53.3400,-0.000781
12.788,53.3698,-0.000781
12.815,53.4170,-0.000781
12.835,53.4512,-0.000781
12.853,53.4834,-0.000781
12.877,53.5276,-0.000819
12.899,53.5658,-0.000819
12.915,53.5950,-0.000819
12.931,53.6244,-0.000819
12.946,53.6529,-0.000819
12.963,53.6835,-0.000819
12.979,53.7133,-0.000819
12.994,53.7425,-0.000819
13.011,53.7735,-0.000819
13.027,53.8041,-0.000819
13.043,53.8347,-0.000819
13.059,53.8654,-0.000819
13.075,53.8965,-0.000819
13.090,53.9271,-0.000819
13.115,53.9761,-0.000828
13.132,54.0091,-0.000828
13.147,54.0395,-0.000828
13.164,54.0730,-0.000828
13.179,54.1039,-0.000828
13.196,54.1362,-0.000828
13.212,54.1710,-0.000828
13.228,54.2028,-0.000828
13.243,54.2351,-0.000828
13.259,54.2678,-0.000828
13.276,54.3037,-0.000828
13.291,54.3349,-0.000828
13.307,54.3694,-0.000828
13.323,54.4030,-0.000828
13.339,54.4367,-0.000828
13.355,54.4707,-0.000828
13.371,54.5056,-0.000838
13.388,54.5404,-0.000838
13.407,54.5801,-0.000838
13.425,54.6163,-0.000838
13.450,54.6671,-0.000838
13.468,54.7026,-0.000838
13.483,54.7345,-0.000838
13.499,54.7660,-0.000838
13.515,54.7976,-0.000838
13.533,54.8332,-0.000838
13.558,54.8826,-0.000838
13.580,54.9239,-0.000838
13.595,54.9548,-0.000838
13.612,54.9854,-0.000838
13.627,55.0152,-0.000838
13.651,55.0606,-0.000697
13.667,55.0910,-0.000697
13.682,55.1192,-0.000697
13.699,55.1493,-0.000697
13.717,55.1844,-0.000697
13.746,55.2359,-0.000697
13.762,55.2650,-0.000697
13.779,55.2956,-0.000697
13.795,55.3238,-0.000697
13.811,55.3509,-0.000697
13.827,55.3808,-0.000697
13.843,55.4077,-0.000697
13.871,55.4563,-0.000489
13.891,55.4896,-0.000489
13.908,55.5186,-0.000489
13.933,55.5604,-0.000489
13.949,55.5883,-0.000489
13.972,55.6245,-0.000489
13.996,55.6642,-0.000489
14.012,55.6910,-0.000489
14.035,55.7266,-0.000489
14.051,55.7519,-0.000489
14.066,55.7764,-0.000489
14.082,55.8012,-0.000489
14.099,55.8272,-0.000489
14.114,55.8510,-0.000537
14.130,55.8750,-0.000537
14.146,55.8992,-0.000537
14.163,55.9246,-0.000537
14.178,55.9473,-0.000537
14.208,55.9921,-0.000537
14.225,56.0158,-0.000537
14.240,56.0380,-0.000537
14.256,56.0610,-0.000537
14.272,56.0834,-0.000537
14.289,56.1071,-0.000537
14.304,56.1278,-0.000537
14.320,56.1501,-0.000537
14.338,56.1754,-0.000537
14.368,56.2156,-0.000640
14.384,56.2369,-0.000640
14.400,56.2579,-0.000640
14.417,56.2795,-0.000640
14.433,56.3007,-0.000640
14.448,56.3199,-0.000640
14.470,56.3486,-0.000640
14.492,56.3753,-0.000640
14.512,56.4000,-0.000640
14.531,56.4233,-0.000640
14.554,56.4511,-0.000640
14.585,56.4888,-0.000640
14.616,56.5237,-0.000640
14.631,56.5415,-0.000405
14.662,56.5764,-0.000405
14.693,56.6102,-0.000405
14.725,56.6447,-0.000405
14.755,56.6773,-0.000405
14.785,56.7086,-0.000405
14.800,56.7236,-0.000405
14.816,56.7391,-0.000405
14.832,56.7561,-0.000405
14.848,56.7711,-0.000405
14.864,56.7864,-0.000066
14.880,56.8019,-0.000066
14.897,56.8179,-0.000066
14.925,56.8435,-0.000066
14.944,56.8609,-0.000066
14.964,56.8794,-0.000066
14.986,56.8984,-0.000066
15.002,56.9125,-0.000066
15.024,56.9306,-0.000066
15.040,56.9445,-0.000066
15.056,56.9571,-0.000066
15.073,56.9712,-0.000066
15.088,56.9836,-0.000066
15.104,56.9956,-0.000019
15.120,57.0084,-0.000019
15.135,57.0203,-0.000019
15.152,57.0323,-0.000019
15.168,57.0441,-0.000019
15.184,57.0557,-0.000019
15.200,57.0680,-0.000019
15.217,57.0789,-0.000019
15.232,57.0896,-0.000019
15.261,57.1097,-0.000019
15.277,57.1200,-0.000019
15.293,57.1300,-0.000019
15.310,57.1409,-0.000019
15.326,57.1509,-0.000019
15.354,57.1676,-0.000113
15.373,57.1789,-0.000113
15.389,57.1882,-0.000113
15.405,57.1970,-0.000113
15.422,57.2063,-0.000113
15.448,57.2202,-0.000113
15.470,57.2321,-0.000113
15.494,57.2436,-0.000113
15.525,57.2580,-0.000113
15.555,57.2718,-0.000113
15.571,57.2787,-0.000113
15.602,57.2918,-0.000113
15.617,57.2977,-0.000179
15.633,57.3037,-0.000179
15.664,57.3156,-0.000179
15.680,57.3210,-0.000179
15.696,57.3265,-0.000179
15.727,57.3365,-0.000179
15.758,57.3455,-0.000179
15.773,57.3498,-0.000179
15.788,57.3540,-0.000179
15.816,57.3608,-0.000179
15.832,57.3648,-0.000179
15.847,57.3683,-0.000179
15.864,57.3719,-0.000264
15.885,57.3760,-0.000264
15.911,57.3807,-0.000264
15.930,57.3837,-0.000264
15.957,57.3878,-0.000264
15.975,57.3901,-0.000264
15.991,57.3920,-0.000264
16.008,57.3937,-0.000264
16.023,57.3951,-0.000264
16.039,57.3964,-0.000264
16.059,57.3977,-0.000264
16.082,57.3989,-0.000264
16.112,57.3998,-0.000264
16.128,57.4000,-0.000264
16.158,57.4000,-0.000301
16.189,57.4000,-0.000301
16.219,57.4000,-0.000301
16.250,57.4000,-0.000301
16.265,57.4000,-0.000301
16.297,57.4000,-0.000301
16.328,57.4000,-0.000301
16.355,57.4000,-0.000301
16.372,57.4000,-0.000301
16.388,57.4000,-0.000264
16.404,57.4000,-0.000264
16.420,57.4000,-0.000264
16.436,57.4000,-0.000264
16.452,57.4000,-0.000264
16.468,57.4000,-0.000264
16.483,57.4000,-0.000264
16.499,57.4000,-0.000264
16.515,57.4000,-0.000264
16.531,57.4000,-0.000264
16.555,57.4000,-0.000264
16.578,57.4000,-0.000264
16.595,57.4000,-0.000264
16.611,57.4000,-0.000264
16.628,57.4000,-0.000264
16.644,57.4000,-0.000301
16.659,57.4000,-0.000301
16.676,57.4000,-0.000301
16.695,57.4000,-0.000301
16.719,57.4000,-0.000301
16.740,57.4000,-0.000301
16.755,57.4000,-0.000301
16.771,57.4000,-0.000301
16.787,57.4000,-0.000301
16.805,57.4000,-0.000301
16.827,57.4000,-0.000301
16.858,57.4000,-0.000301
16.881,57.4000,-0.000301
16.897,57.4000,-0.000301
16.913,57.4000,-0.000245
16.930,57.4000,-0.000245
16.946,57.4000,-0.000245
16.961,57.4000,-0.000245
16.977,57.4000,-0.000245
16.994,57.4000,-0.000245
17.009,57.4000,-0.000245
17.025,57.4000,-0.000245
17.041,57.4000,-0.000245
17.057,57.4000,-0.000245
17.074,57.4000,-0.000245
17.089,57.4000,-0.000245
17.106,57.4000,-0.000245
17.122,57.4000,-0.000245
17.137,57.4000,-0.000339
17.153,57.4000,-0.000339
17.169,57.4000,-0.000339
17.185,57.4000,-0.000339
17.201,57.4000,-0.000339
17.217,57.4000,-0.000339
17.233,57.4000,-0.000339
17.253,57.4000,-0.000339
17.276,57.4000,-0.000339
17.292,57.4000,-0.000339
17.307,57.4000,-0.000339
17.338,57.4000,-0.000339
17.368,57.4000,-0.000339
17.384,57.4000,-0.000339
17.399,57.4000,-0.000339
17.420,57.4000,-0.000367
17.436,57.4000,-0.000367
17.452,57.4000,-0.000367
17.468,57.4000,-0.000367
17.485,57.4000,-0.000367
17.507,57.4000,-0.000367
17.538,57.4000,-0.000367
17.554,57.4000,-0.000367
17.585,57.4000,-0.000367
17.601,57.4000,-0.000367
17.616,57.4000,-0.000367
17.631,57.4000,-0.000160
17.662,57.4000,-0.000160
17.677,57.4000,-0.000160
17.693,57.4000,-0.000160
17.724,57.4000,-0.000160
17.746,57.4000,-0.000160
17.769,57.4000,-0.000160
17.789,57.4000,-0.000160
17.817,57.4000,-0.000160
17.836,57.4000,-0.000160
17.852,57.4000,-0.000160
17.868,57.4000,-0.000160
17.884,57.4000,-0.000160
17.900,57.4000,-0.000160
17.916,57.4000,-0.000160
17.932,57.4000,-0.000160
17.948,57.4000,-0.000160
17.972,57.4000,-0.000160
17.988,57.4000,-0.000160
18.004,57.4000,-0.000160
18.020,57.4000,-0.000160
18.036,57.4000,-0.000160
18.052,57.4000,-0.000160
18.068,57.4000,-0.000160
18.084,57.4000,-0.000160
18.100,57.4000,-0.000160
18.116,57.4000,-0.000160
18.132,57.4000,-0.000311
18.148,57.4000,-0.000311
18.164,57.4000,-0.000311
18.180,57.4000,-0.000311
18.196,57.4000,-0.000311
18.212,57.4000,-0.000311
18.228,57.4000,-0.000311
18.244,57.4000,-0.000311
18.259,57.4000,-0.000311
18.277,57.4000,-0.000311
18.300,57.4000,-0.000311
18.328,57.4000,-0.000311
18.343,57.4000,-0.000311
18.360,57.4000,-0.000311
18.391,57.4000,-0.000414
18.408,57.4000,-0.000414
18.437,57.4000,-0.000414
18.453,57.4000,-0.000414
18.484,57.4000,-0.000414
18.500,57.4000,-0.000414
18.526,57.4000,-0.000414
18.542,57.4000,-0.000414
18.558,57.4000,-0.000414
18.574,57.4000,-0.000414
18.590,57.4000,-0.000414
18.606,57.4000,-0.000414
18.622,57.4000,-0.000405
18.638,57.4000,-0.000405
18.655,57.4000,-0.000405
18.670,57.4000,-0.000405
18.685,57.4000,-0.000405
18.702,57.4000,-0.000405
18.719,57.4000,-0.000405
18.749,57.4000,-0.000405
18.766,57.4000,-0.000405
18.782,57.4000,-0.000405
18.798,57.4000,-0.000405
18.814,57.4000,-0.000405
18.830,57.4000,-0.000405
18.846,57.4000,-0.000405
18.862,57.4000,-0.000405
18.877,57.4000,-0.000311
18.893,57.4000,-0.000311
18.909,57.4000,-0.000311
18.925,57.4000,-0.000311
18.942,57.4000,-0.000311
18.957,57.4000,-0.000311
18.975,57.4000,-0.000311
18.998,57.4000,-0.000311
19.014,57.4000,-0.000311
19.045,57.4000,-0.000311
19.075,57.4000,-0.000311
19.091,57.4000,-0.000311
19.108,57.4000,-0.000311
19.138,57.4000,-0.000235
19.176,57.4000,-0.000235
19.197,57.4000,-0.000235
19.213,57.4000,-0.000235
19.229,57.4000,-0.000235
19.245,57.4000,-0.000235
19.261,57.4000,-0.000235
19.279,57.4000,-0.000235
19.308,57.4000,-0.000235
19.325,57.4000,-0.000235
19.341,57.4000,-0.000235
19.359,57.4000,-0.000235
19.386,57.4000,-0.000292
19.405,57.4000,-0.000292
19.421,57.4000,-0.000292
19.438,57.4000,-0.000292
19.464,57.4000,-0.000292
19.495,57.4000,-0.000292
19.525,57.4000,-0.000292
19.541,57.4000,-0.000292
19.572,57.4000,-0.000292
19.592,57.4000,-0.000292
19.609,57.4000,-0.000292
19.625,57.4000,-0.000292
19.640,57.4000,-0.000292
19.657,57.4000,-0.000292
19.672,57.4000,-0.000292
19.688,57.4000,-0.000292
19.704,57.4000,-0.000292
19.721,57.4000,-0.000292
19.737,57.4000,-0.000292
19.752,57.4000,-0.000292
19.768,57.4000,-0.000292
19.786,57.4000,-0.000292
19.804,57.4000,-0.000292
19.820,57.4000,-0.000292
19.850,57.4000,-0.000292
19.866,57.4000,-0.000377
19.897,57.4000,-0.000377
19.913,57.4000,-0.000377
19.928,57.4000,-0.000377
19.945,57.4000,-0.000377
19.960,57.4000,-0.000377
19.976,57.4000,-0.000377
19.993,57.4000,-0.000377
20.008,57.4000,-0.000377
20.025,57.4000,-0.000377
20.052,57.4000,-0.000377
20.072,57.4000,-0.000377
20.089,57.4000,-0.000377
20.105,57.4000,-0.000377
20.120,57.4000,-0.000377
20.143,57.4000,-0.000292
20.160,57.4000,-0.000292
20.175,57.4000,-0.000292
20.191,57.4000,-0.000292
20.210,57.4000,-0.000292
20.238,57.4000,-0.000292
20.255,57.4000,-0.000292
20.272,57.4000,-0.000292
20.300,57.4000,-0.000292
20.319,57.4000,-0.000292
20.335,57.4000,-0.000292
20.351,57.4000,-0.000292
20.368,57.4000,-0.000104
20.383,57.4000,-0.000104
20.399,57.4000,-0.000104
20.415,57.4000,-0.000104
20.431,57.4000,-0.000104
20.447,57.4000,-0.000104
20.463,57.4000,-0.000104
20.479,57.4000,-0.000104
20.495,57.4000,-0.000104
20.511,57.4000,-0.000104
20.527,57.4000,-0.000104
20.543,57.4000,-0.000104
20.559,57.4000,-0.000104
20.575,57.4000,-0.000104
20.591,57.4000,-0.000104
20.607,57.4000,-0.000395
20.623,57.4000,-0.000395
20.639,57.4000,-0.000395
20.665,57.4000,-0.000395
20.681,57.4000,-0.000395
20.697,57.4000,-0.000395
20.714,57.4000,-0.000395
20.729,57.4000,-0.000395
20.745,57.4000,-0.000395
20.761,57.4000,-0.000395
20.777,57.4000,-0.000395
20.793,57.4000,-0.000395
20.809,57.4000,-0.000395
20.825,57.3999,-0.000395
20.841,57.3998,-0.000395
20.858,57.3993,-0.000320
20.876,57.3985,-0.000320
20.908,57.3966,-0.000320
20.938,57.3941,-0.000320
20.953,57.3925,-0.000320
20.969,57.3907,-0.000320
20.985,57.3887,-0.000320
21.002,57.3865,-0.000320
21.018,57.3840,-0.000320
21.046,57.3793,-0.000320
21.065,57.3758,-0.000320
21.082,57.3726,-0.000320
21.109,57.3669,-0.000292
21.129,57.3621,-0.000292
21.145,57.3581,-0.000292
21.161,57.3540,-0.000292
21.177,57.3499,-0.000292
21.200,57.3432,-0.000292
21.216,57.3381,-0.000292
21.232,57.3334,-0.000292
21.247,57.3285,-0.000292
21.264,57.3228,-0.000292
21.279,57.3174,-0.000292
21.296,57.3116,-0.000292
21.312,57.3054,-0.000292
21.327,57.2996,-0.000292
21.348,57.2915,-0.000292
21.372,57.2813,-0.000329
21.392,57.2729,-0.000329
21.408,57.2658,-0.000329
21.424,57.2584,-0.000329
21.441,57.2508,-0.000329
21.465,57.2388,-0.000329
21.497,57.2228,-0.000329
21.528,57.2066,-0.000329
21.559,57.1891,-0.000329
21.589,57.1720,-0.000329
21.620,57.1535,-0.000329
21.635,57.1439,-0.000207
21.653,57.1326,-0.000207
21.681,57.1144,-0.000207
21.712,57.0942,-0.000207
21.728,57.0827,-0.000207
21.758,57.0617,-0.000207
21.776,57.0485,-0.000207
21.791,57.0373,-0.000207
21.808,57.0252,-0.000207
21.823,57.0132,-0.000207
21.840,57.0001,-0.000207
21.856,56.9879,-0.000264
21.872,56.9748,-0.000264
21.888,56.9619,-0.000264
21.904,56.9491,-0.000264
21.919,56.9363,-0.000264
21.936,56.9223,-0.000264
21.951,56.9090,-0.000264
21.967,56.8954,-0.000264
21.984,56.8809,-0.000264
21.999,56.8662,-0.000264
22.015,56.8525,-0.000264
22.031,56.8380,-0.000264
22.047,56.8231,-0.000264
22.063,56.8079,-0.000264
22.080,56.7914,-0.000264
22.095,56.7772,-0.000264
22.111,56.7616,-0.000264
22.128,56.7448,-0.000264
22.144,56.7292,-0.000245
22.160,56.7131,-0.000245
22.176,56.6955,-0.000245
22.192,56.6798,-0.000245
22.207,56.6636,-0.000245
22.235,56.6342,-0.000245
22.253,56.6142,-0.000245
22.284,56.5799,-0.000245
22.316,56.5451,-0.000245
22.345,56.5109,-0.000245
22.362,56.4911,-0.000245
22.378,56.4727,-0.000245
22.394,56.4536,-0.000132
22.409,56.4351,-0.000132
22.428,56.4104,-0.000132
22.453,56.3818,-0.000132
22.473,56.3562,-0.000132
22.490,56.3352,-0.000132
22.505,56.3153,-0.000132
22.521,56.2951,-0.000132
22.538,56.2738,-0.000132
22.554,56.2524,-0.000132
22.570,56.2310,-0.000132
22.585,56.2103,-0.000132
22.601,56.1887,-0.000132
22.618,56.1667,-0.000132
22.634,56.1449,-0.000038
22.649,56.1233,-0.000038
22.665,56.1005,-0.000038
22.681,56.0784,-0.000038
22.698,56.0546,-0.000038
22.713,56.0330,-0.000038
22.730,56.0079,-0.000038
22.746,55.9853,-0.000038
22.763,55.9604,-0.000038
22.791,55.9193,-0.000038
22.807,55.8943,-0.000038
22.825,55.8669,-0.000038
22.855,55.8208,-0.000038
22.872,55.7944,-0.000038
22.887,55.7707,0.000056
22.918,55.7225,0.000056
22.934,55.6958,0.000056
22.950,55.6699,0.000056
22.966,55.6445,0.000056
22.983,55.6166,0.000056
22.998,55.5920,0.000056
23.014,55.5644,0.000056
23.030,55.5388,0.000056
23.051,55.5032,0.000056
23.074,55.4632,0.000056
23.094,55.4303,0.000056
23.110,55.4018,0.000056
23.126,55.3744,0.000056
23.142,55.3457,0.000198
23.158,55.3177,0.000198
23.174,55.2880,0.000198
23.190,55.2604,0.000198
23.206,55.2322,0.000198
23.222,55.2030,0.000198
23.238,55.1733,0.000198
23.254,55.1427,0.000198
23.270,55.1145,0.000198
23.286,55.0843,0.000198
23.302,55.0540,0.000198
23.318,55.0232,0.000198
23.345,54.9734,0.000198
23.360,54.9433,0.000198
23.376,54.9125,0.000169
23.392,54.8804,0.000169
23.408,54.8506,0.000169
23.424,54.8179,0.000169
23.440,54.7877,0.000169
23.457,54.7528,0.000169
23.472,54.7229,0.000169
23.488,54.6912,0.000169
23.504,54.6589,0.000169
23.520,54.6245,0.000169
23.536,54.5931,0.000169
23.552,54.5600,0.000169
23.569,54.5237,0.000169
23.588,54.4851,0.000169
23.611,54.4339,-0.000198
23.632,54.3905,-0.000198
23.648,54.3580,-0.000198
23.664,54.3229,-0.000198
23.680,54.2899,-0.000198
23.696,54.2549,-0.000198
23.712,54.2223,-0.000198
23.728,54.1888,-0.000198
23.744,54.1553,-0.000198
23.761,54.1200,-0.000198
23.776,54.0908,-0.000198
23.792,54.0575,-0.000198
23.809,54.0242,-0.000198
23.824,53.9931,-0.000198
23.840,53.9622,-0.000198
23.856,53.9302,-0.000198
23.872,53.8987,-0.000593
23.888,53.8676,-0.000593
23.905,53.8336,-0.000593
23.921,53.8034,-0.000593
23.936,53.7723,-0.000593
23.951,53.7444,-0.000593
23.967,53.7138,-0.000593
23.984,53.6832,-0.000593
24.000,53.6529,-0.000593
24.016,53.6230,-0.000593
24.032,53.5944,-0.000593
24.048,53.5651,-0.000593
24.064,53.5337,-0.000593
24.080,53.5066,-0.000593
24.096,53.4780,-0.000593
24.112,53.4495,-0.000772
24.128,53.4195,-0.000772
24.144,53.3921,-0.000772
24.160,53.3637,-0.000772
24.176,53.3369,-0.000772
24.192,53.3082,-0.000772
24.207,53.2816,-0.000772
24.223,53.2547,-0.000772
24.241,53.2244,-0.000772
24.262,53.1897,-0.000772
24.293,53.1376,-0.000772
24.324,53.0876,-0.000772
24.340,53.0598,-0.000772
24.372,53.0106,-0.000772
24.402,52.9619,-0.000866
24.417,52.9395,-0.000866
24.433,52.9152,-0.000866
24.449,52.8908,-0.000866
24.480,52.8430,-0.000866
24.496,52.8207,-0.000866
24.514,52.7939,-0.000866
24.542,52.7524,-0.000866
24.560,52.7265,-0.000866
24.575,52.7039,-0.000866
24.592,52.6807,-0.000866
24.608,52.6585,-0.000866
24.624,52.6348,-0.000866
24.640,52.6121,-0.000866
24.656,52.5913,-0.000866
24.672,52.5686,-0.000866
24.688,52.5466,-0.000866
24.703,52.5272,-0.000866
24.719,52.5047,-0.000866
24.737,52.4824,-0.000866
24.758,52.4542,-0.000866
24.773,52.4355,-0.000866
24.789,52.4155,-0.000866
24.820,52.3761,-0.000866
24.850,52.3381,-0.000866
24.881,52.3016,-0.000838
24.911,52.2656,-0.000838
24.927,52.2471,-0.000838
24.944,52.2278,-0.000838
24.960,52.2090,-0.000838
24.976,52.1917,-0.000838
24.991,52.1742,-0.000838
25.007,52.1564,-0.000838
25.023,52.1383,-0.000838
25.040,52.1211,-0.000838
25.055,52.1039,-0.000838
25.073,52.0855,-0.000838
25.099,52.0580,-0.000847
25.120,52.0369,-0.000847
25.136,52.0205,-0.000847
25.152,52.0044,-0.000847
25.167,51.9894,-0.000847
25.183,51.9735,-0.000847
25.200,51.9575,-0.000847
25.215,51.9430,-0.000847
25.231,51.9280,-0.000847
25.251,51.9089,-0.000847
25.272,51.8894,-0.000847
25.301,51.8642,-0.000847
25.332,51.8376,-0.000847
25.362,51.8112,-0.000847
25.394,51.7859,-0.000875
25.424,51.7614,-0.000875
25.448,51.7426,-0.000875
25.464,51.7305,-0.000875
25.480,51.7184,-0.000875
25.496,51.7065,-0.000875
25.513,51.6946,-0.000875
25.528,51.6837,-0.000875
25.544,51.6724,-0.000875
25.560,51.6613,-0.000875
25.576,51.6504,-0.000875
25.592,51.6396,-0.000875
25.608,51.6290,-0.000819
25.624,51.6188,-0.000819
25.640,51.6083,-0.000819
25.656,51.5987,-0.000819
25.672,51.5892,-0.000819
25.688,51.5796,-0.000819
25.704,51.5703,-0.000819
25.720,51.5610,-0.000819
25.736,51.5521,-0.000819
25.752,51.5431,-0.000819
25.768,51.5346,-0.000819
25.784,51.5260,-0.000819
25.800,51.5182,-0.000819
25.816,51.5103,-0.000819
25.832,51.5027,-0.000819
25.849,51.4945,-0.000819
25.864,51.4876,-0.000819
25.880,51.4804,-0.000791
25.896,51.4732,-0.000791
25.912,51.4664,-0.000791
25.928,51.4601,-0.000791
25.944,51.4536,-0.000791
25.960,51.4473,-0.000791
25.976,51.4411,-0.000791
26.000,51.4325,-0.000791
26.016,51.4268,-0.000791
26.032,51.4216,-0.000791
26.049,51.4163,-0.000791
26.066,51.4109,-0.000791
26.091,51.4036,-0.000791
26.112,51.3975,-0.000791
26.128,51.3935,-0.000791
26.144,51.3896,-0.000894
26.160,51.3858,-0.000894
26.176,51.3819,-0.000894
26.193,51.3786,-0.000894
26.208,51.3753,-0.000894
26.224,51.3722,-0.000894
26.240,51.3695,-0.000894
26.256,51.3669,-0.000894
26.272,51.3643,-0.000894
26.288,51.3621,-0.000894
26.305,51.3600,-0.000894
26.323,51.3579,-0.000894
26.354,51.3548,-0.000838
26.370,51.3535,-0.000838
26.387,51.3525,-0.000838
26.417,51.3509,-0.000838
26.434,51.3504,-0.000838
26.463,51.3500,-0.000838
26.480,51.3500,-0.000838
26.496,51.3500,-0.000838
26.512,51.3500,-0.000838
26.536,51.3500,-0.000838
26.552,51.3500,-0.000838
26.568,51.3500,-0.000838
26.584,51.3500,-0.000838
26.600,51.3500,-0.000838
26.616,51.3500,-0.000762
26.632,51.3500,-0.000762
26.648,51.3502,-0.000762
26.664,51.3505,-0.000762
26.679,51.3510,-0.000762
26.696,51.3518,-0.000762
26.711,51.3526,-0.000762
26.727,51.3539,-0.000762
26.744,51.3551,-0.000762
26.760,51.3566,-0.000762
26.776,51.3584,-0.000762
26.797,51.3610,-0.000762
26.821,51.3641,-0.000762
26.840,51.3670,-0.000762
26.856,51.3696,-0.000762
26.872,51.3727,-0.000800
26.887,51.3755,-0.000800
